RB,,RB1,,Lig,,jug,,pn,,rb3,,
Wavelength (nm),Abs,Wavelength (nm),Abs,Wavelength (nm),Abs,Wavelength (nm),Abs,Wavelength (nm),Abs,Wavelength (nm),Abs,
800,0.0007026732783,800,0.001634171465,800,0.003066536039,800,-0.001612958498,800,-0.0004067368864,800,0.002303790068,
799,0.0005824622931,799,0.001541186241,799,0.003048209473,799,-0.00160671724,799,-0.0005050520995,799,0.002290752251,
798,0.0006043399335,798,0.001598367584,798,0.002971054288,798,-0.001578243799,798,-0.0005398010253,798,0.002316333586,
797,0.0006774720969,797,0.001673512277,797,0.003009447595,797,-0.001601249678,797,-0.0004820914473,797,0.002237981185,
796,0.0006451430963,796,0.001516611781,796,0.003017893061,796,-0.001557506504,796,-0.0005470917094,796,0.002340745181,
795,0.0007092330488,795,0.001581687829,795,0.003069012426,795,-0.001657160348,795,-0.000523874769,795,0.002229602775,
794,0.0005223045009,794,0.001463545021,794,0.00292333425,794,-0.001617239672,794,-0.0006878664135,794,0.002182510681,
793,0.000665079453,793,0.001555760158,793,0.003008926287,793,-0.001609915285,793,-0.0004245293967,793,0.002323568333,
792,0.000537803222,792,0.001573010464,792,0.002926982706,792,-0.001678202301,792,-0.0005638960865,792,0.002288280055,
791,0.000537025684,791,0.001633703709,791,0.003162742592,791,-0.001450399519,791,-0.0005191691453,791,0.002202803968,
790,0.0007035029703,790,0.001614684239,790,0.003146446077,790,-0.001591449138,790,-0.0004526649136,790,0.002262414433,
789,0.0005635665148,789,0.001457882812,789,0.003092214931,789,-0.001451070304,789,-0.0004584573035,789,0.002211363753,
788,0.0004664826265,788,0.001410822268,788,0.0029968319,788,-0.001723016263,788,-0.0006634680321,788,0.002172962762,
787,0.0005329824635,787,0.001518326229,787,0.003038042923,787,-0.001661389484,787,-0.0005359229399,787,0.002227755496,
786,0.0006240670336,786,0.001451857155,786,0.003084915224,786,-0.00158144196,786,-0.0004935719189,786,0.00230441452,
785,0.0005588232307,785,0.001432507881,785,0.002987943823,785,-0.001697954023,785,-0.0006151325069,785,0.002183733508,
784,0.0005900312099,784,0.001633573789,784,0.003131192876,784,-0.001572259935,784,-0.0005166353658,784,0.002348813228,
783,0.0007024399238,783,0.00161395676,783,0.003200527281,783,-0.001516854274,783,-0.0005174627295,783,0.002393997274,
782,0.0006062840694,782,0.001502740546,782,0.003113854444,782,-0.001533156843,782,-0.0005106369499,782,0.00216206233,
781,0.0006509501836,781,0.001496064826,781,0.003143995069,781,-0.001522993669,781,-0.0006398954429,781,0.002256377367,
780,0.0004690740025,780,0.001441026689,780,0.002980254823,780,-0.001549097709,780,-0.0006567478995,780,0.002181990305,
779,0.0007017917233,779,0.001560124569,779,0.003014817368,779,-0.001478881342,779,-0.0005729960394,779,0.002217139816,
778,0.0006572240382,778,0.001456350437,778,0.003106632503,778,-0.001563954749,778,-0.0006016389234,778,0.002368593588,
777,0.0005227450747,777,0.001524456777,777,0.003141231136,777,-0.001589695341,777,-0.0004006852105,777,0.002275269013,
776,0.0005938156974,776,0.001485856599,776,0.003099488793,776,-0.001559002441,776,-0.0006262475508,776,0.002288410207,
775,0.000531505153,775,0.001473778626,775,0.00314892293,775,-0.001551522408,775,-0.0005727892276,775,0.002329033567,
774,0.0006011515507,774,0.001702773501,774,0.003073939588,774,-0.001593873487,774,-0.0005303383805,774,0.002364221029,
773,0.0006419544225,773,0.001566567458,773,0.003064398188,773,-0.001579791307,773,-0.000509809528,773,0.002335852245,
772,0.000670601672,772,0.00163635402,772,0.003134452039,772,-0.00137459347,772,-0.000383408973,772,0.002209152328,
771,0.0006276444183,771,0.001592651708,771,0.00309333601,771,-0.00154223654,771,-0.0005979681737,771,0.002222447656,
770,0.0006696683122,770,0.001572984504,770,0.003168531461,770,-0.001520414138,770,-0.0004995188792,770,0.002220522147,
769,0.0006229004939,769,0.001547473017,769,0.003023080528,769,-0.00147047115,769,-0.000516325119,769,0.002299131826,
768,0.0006738164811,768,0.001612787484,768,0.003139744978,768,-0.001447045477,768,-0.0005835434422,768,0.002425623825,
767,0.0006572240382,767,0.001569295302,767,0.003186523914,767,-0.001419851556,767,-0.0005032938789,767,0.002340901177,
766,0.0007333988906,766,0.001677903929,766,0.003197398037,766,-0.001300477539,766,-0.0005098612746,766,0.002357245889,
765,0.0006680868682,765,0.001670913771,765,0.003239775542,765,-0.001382850693,765,-0.0004662665306,765,0.002406413434,
764,0.0007148854784,764,0.001583324629,764,0.003152990714,764,-0.001450605807,764,-0.0005108955083,764,0.002432235749,
763,0.0007479456835,763,0.001659480156,763,0.003106189193,763,-0.001416394138,763,-0.0005423346884,763,0.002473992063,
762,0.0006964246859,762,0.001627000049,762,0.003168792231,762,-0.001373509644,762,-0.0005181349698,762,0.002378406236,
761,0.0007048771367,761,0.001593768946,761,0.003200396895,761,-0.001315601054,761,-0.0004608879972,761,0.002472351771,
760,0.0007518352941,760,0.001633677748,760,0.003266768996,760,-0.00132003997,760,-0.0004109782167,760,0.002352430951,
759,0.0007020250778,759,0.00157012674,759,0.003129393794,759,-0.00141949032,759,-0.0004561300157,759,0.002476413036,
758,0.0007912000874,758,0.001598029863,758,0.003267968772,758,-0.001265789499,758,-0.0004177538503,758,0.002583738416,
757,0.0006101723993,757,0.00145222072,757,0.003147697542,757,-0.001489045681,757,-0.0006270229933,757,0.002388375113,
756,0.0007188525633,756,0.001529418398,756,0.003172208089,756,-0.001424031449,756,-0.0004952267627,756,0.002392175375,
755,0.0007073403103,755,0.001658051042,755,0.003166732145,755,-0.001305639278,755,-0.0005477122031,755,0.002471727086,
754,0.0007340471493,754,0.001612787484,754,0.00321338349,754,-0.001221547718,754,-0.000498019217,754,0.002535592299,
753,0.0006974617718,753,0.001599822543,753,0.003162012435,753,-0.001355807646,753,-0.0005180315347,753,0.002419922967,
752,0.0007112814346,752,0.001589663909,752,0.003303936683,752,-0.001270951587,752,-0.0004879868648,752,0.002505207667,
751,0.0007805416826,751,0.001721874811,751,0.003290529829,751,-0.001266873442,751,-0.0005831815652,751,0.002502474003,
750,0.0007815271383,750,0.001620504307,750,0.003257640637,750,-0.001213339041,750,-0.0004419074394,750,0.00253853458,
749,0.0007740326691,749,0.001635548542,749,0.003265464911,749,-0.001226503868,749,-0.0004886591341,749,0.002602930646,
748,0.0007577994256,748,0.001711921184,748,0.003242878942,748,-0.001214216696,748,-0.0003549586108,748,0.002608060837,
747,0.0007994728512,747,0.001699005254,747,0.003247521352,747,-0.001193255535,747,-0.0004408730601,747,0.002641057363,
746,0.0008372079465,746,0.001697861822,746,0.003305919003,746,-0.001194701181,746,-0.0003388186742,746,0.002531556645,
745,0.0007591219619,745,0.001667717472,745,0.003212001408,745,-0.001234041178,745,-0.0004450105771,745,0.002590404823,
744,0.0008840766968,744,0.00165230839,744,0.003232108196,744,-0.001149316318,744,-0.0004468724655,744,0.002608529758,
743,0.0008429398295,743,0.00171685894,743,0.003345411504,743,-0.001238945522,743,-0.0004113402683,743,0.002626837464,
742,0.0007669532206,742,0.001597250346,742,0.003263430437,742,-0.001176940161,742,-0.0005037075607,742,0.002606055699,
741,0.0008699403261,741,0.001718704123,741,0.003345802892,741,-0.001149987569,741,-0.0004010990087,741,0.002663715975,
740,0.0008829354192,740,0.00171017996,740,0.003286695573,740,-0.001154531376,740,-0.0003715635103,740,0.002607435919,
739,0.0007630894543,739,0.001645578421,739,0.003193747019,739,-0.00118597562,739,-0.0004839014728,739,0.002581446897,
738,0.0007830052637,738,0.001641083159,738,0.003302319441,738,-0.001179728308,738,-0.0004087023844,738,0.002637098543,
737,0.0008694734424,737,0.001663196017,737,0.003280748846,737,-0.001190209296,737,-0.0004527683486,737,0.002597201616,
736,0.0008916768129,736,0.001700746361,736,0.003267316613,736,-0.001158610452,736,-0.0004287705524,736,0.002577280626,
735,0.0008920918335,735,0.001715143793,735,0.003302658442,735,-0.001165426103,735,-0.0004763511242,735,0.002602670342,
734,0.0008082125569,734,0.001716521103,734,0.00331217912,734,-0.001126596238,734,-0.000451578846,734,0.002570562297,
733,0.0008168746717,733,0.001697757863,733,0.003318674164,733,-0.001232595765,733,-0.0004125816049,733,0.002589805983,
732,0.0008152407827,732,0.001666418277,732,0.003314813599,732,-0.001195217483,732,-0.000504483236,732,0.002557151951,
731,0.0007943639648,731,0.001575478585,731,0.003256649477,731,-0.001265479717,731,-0.0005297178868,731,0.002456211252,
730,0.0007372883847,730,0.001670368016,730,0.003316978691,730,-0.00128034642,730,-0.000464663317,730,0.00252489117,
729,0.0008426804561,729,0.001742224558,729,0.003410136094,729,-0.001177353202,729,-0.0004034783051,729,0.002464619931,
728,0.0008834282053,728,0.001764628454,728,0.003425294766,728,-0.001135529485,728,-0.0004828154633,728,0.002581160516,
727,0.0006960098399,727,0.001624999335,727,0.003318830626,727,-0.00122547138,727,-0.000542851747,727,0.002489143983,
726,0.0007382477634,726,0.001705865958,726,0.003350550542,726,-0.001220515231,726,-0.0005162216839,726,0.002426769119,
725,0.0008384788525,725,0.001684478484,725,0.003432887141,725,-0.00111105293,725,-0.0004753168032,725,0.002509269165,
724,0.0008174711838,724,0.001709920121,724,0.00343494839,724,-0.001163257519,724,-0.0004230812192,724,0.002475866349,
723,0.0008768658154,723,0.001730425167,723,0.003454230493,723,-0.001139918575,723,-0.0004727310443,723,0.002508514095,
722,0.0007677052636,722,0.001590703148,722,0.003348515835,722,-0.001178953797,722,-0.0005615176633,722,0.002388635417,
721,0.0008377785562,721,0.001683023293,721,0.003432521829,721,-0.001135839266,721,-0.0005380429211,721,0.00247362745,
720,0.0008425507694,720,0.001623206539,720,0.003376402892,720,-0.001219895668,720,-0.0005388185382,720,0.002423306927,
719,0.0008441329119,719,0.001681516063,719,0.003395864973,719,-0.001147818868,719,-0.0005094475928,719,0.002435828093,
718,0.0008612253005,718,0.001703709015,718,0.003453786951,718,-0.001098452718,718,-0.0004999326193,718,0.002518095542,
717,0.0007449896075,717,0.001657011569,717,0.003398891538,717,-0.001264137565,717,-0.0006350877229,717,0.002365470398,
716,0.0007982021198,716,0.001658154884,716,0.003428999567,716,-0.001218140358,716,-0.0005218581064,716,0.002403029473,
715,0.0008578274865,715,0.001684062765,715,0.003431582591,715,-0.001129797776,715,-0.0005230474053,715,0.002452957211,
714,0.0008643896435,714,0.001694405451,714,0.003445254639,714,-0.001147354138,714,-0.0005162216839,714,0.00242669112,
713,0.0008043224807,713,0.001690533478,713,0.003448933596,713,-0.00119872822,713,-0.0005156528787,713,0.002455456182,
712,0.0008506170125,712,0.00175937824,712,0.003528862027,712,-0.001087298035,712,-0.0005181349698,712,0.002440956188,
711,0.0008575162501,711,0.001741886605,711,0.003505818779,711,-0.001169969793,711,-0.0005482809502,711,0.00238949433,
710,0.0007750440273,710,0.001724109869,710,0.003500938881,710,-0.001164651592,710,-0.0005266670487,710,0.002426612889,
709,0.0008152926457,709,0.001709192409,709,0.003471504198,709,-0.001227175002,709,-0.0005525209126,709,0.002313731005,
708,0.000825925963,708,0.001697212108,708,0.003518266603,708,-0.001132173114,708,-0.0004707658372,708,0.002434266033,
707,0.0009118320304,707,0.001791608403,707,0.003503026441,707,-0.001087556244,707,-0.0004831774568,707,0.002416512929,
706,0.0008124657907,706,0.001666288357,706,0.003473722143,706,-0.00122547138,706,-0.0006085149944,706,0.002332234755,
705,0.0008081347914,705,0.00171108963,705,0.003549087793,705,-0.001180709223,705,-0.0005939355469,705,0.002414612798,
704,0.000839334738,704,0.001689390047,704,0.003517013974,704,-0.001170692616,704,-0.0006018974236,704,0.002346236492,
703,0.0008157335687,703,0.001625259174,703,0.003474530997,703,-0.001293870504,703,-0.0006953097181,703,0.002301655943,
702,0.0007152225589,702,0.001594782108,702,0.003373637563,702,-0.001320969081,702,-0.0007110746228,702,0.002205561846,
701,0.0008429657901,701,0.00174134085,701,0.003550679656,701,-0.001023566583,701,-0.0005543823354,701,0.002325546229,
700,0.0008770473651,700,0.001722394605,700,0.00356610422,700,-0.00112468563,700,-0.0005919708638,700,0.002324505243,
699,0.0009571003029,699,0.001804786967,699,0.003572341986,699,-0.001107025077,699,-0.000538560038,699,0.002415784169,
698,0.0008442625985,698,0.001723304158,698,0.003565608291,698,-0.001183290849,698,-0.0006087218062,698,0.00225387956,
697,0.0008819497307,697,0.001778846025,697,0.003608517814,697,-0.001141984016,697,-0.0005480741384,697,0.002336216625,
696,0.0008356258622,696,0.001678267727,696,0.003549374873,696,-0.001212254865,696,-0.0006651222357,696,0.00228638039,
695,0.000873856945,695,0.001753400313,695,0.003621099051,695,-0.001169401803,695,-0.0006216981565,695,0.00232851319,
694,0.0008740644553,694,0.001737728249,694,0.003595519112,694,-0.001209518639,694,-0.0006357597886,694,0.002362217056,
693,0.0008590465295,693,0.001772659947,693,0.003596563358,693,-0.001178592327,693,-0.0006190615823,693,0.00236887997,
692,0.0008561156574,692,0.001761041698,692,0.00362801645,692,-0.001112705446,692,-0.0006470810622,692,0.002350635128,
691,0.0008953861543,691,0.00179792475,691,0.003641564166,691,-0.001169969793,691,-0.0005948144244,691,0.002360525308,
690,0.0008940632106,690,0.001818459947,690,0.003630235093,690,-0.001136820414,690,-0.0006479081931,690,0.002319430467,
689,0.0008738829056,689,0.001788671128,689,0.00357346423,689,-0.00122722669,689,-0.0007168635493,689,0.002349489834,
688,0.0009146076627,688,0.001814742689,688,0.003635012079,688,-0.001159591484,688,-0.000618803082,688,0.002305819886,
687,0.000960472913,687,0.001885297126,687,0.003701711772,687,-0.001122052083,687,-0.000633536838,687,0.002358599333,
686,0.0009555956349,686,0.001861951081,686,0.003665945958,686,-0.00112411764,686,-0.0006304866984,686,0.002337621991,
685,0.0009207036928,685,0.00184406538,685,0.00369630754,685,-0.001138937427,685,-0.0006583504146,685,0.002317478647,
684,0.001020587632,684,0.001951910672,684,0.003718943102,684,-0.001046653488,684,-0.0005849394365,684,0.002367916983,
683,0.0009354643407,683,0.001897204667,683,0.003681922564,683,-0.001115700463,683,-0.0005985886091,683,0.002318519633,
682,0.0009479424916,682,0.001879395568,682,0.003688292578,682,-0.001188195776,682,-0.00067013636,682,0.002314667916,
681,0.001003904152,681,0.001906564459,681,0.003746018512,681,-0.00111002021,681,-0.000633536838,681,0.002348110545,
680,0.0009991042316,680,0.001942965901,680,0.003666598583,680,-0.001137491665,680,-0.0006639849744,680,0.00230714702,
679,0.001016462105,679,0.001868892345,679,0.003746880218,679,-0.001136768726,679,-0.0006535945577,679,0.002296321327,
678,0.001002295525,678,0.001923490781,678,0.003767429385,678,-0.001112085767,678,-0.0007000650512,678,0.002355996519,
677,0.001032393659,677,0.001971750986,677,0.003779049264,677,-0.001106818439,677,-0.000554899394,677,0.002416773234,
676,0.001018797397,676,0.001949908445,676,0.003770014504,676,-0.001128351898,676,-0.0006321410183,676,0.002315448597,
675,0.001043421566,675,0.001990630291,675,0.0037750802,675,-0.001101551112,675,-0.0005805963883,675,0.002305897884,
674,0.0010046307,674,0.001946450095,674,0.003745287424,674,-0.001076762914,674,-0.0006342088454,674,0.002279484645,
673,0.001043239841,673,0.001967928605,673,0.003768578405,673,-0.001129229786,673,-0.0006222151569,673,0.002377287019,
672,0.001076818211,672,0.00203504879,672,0.003823546693,672,-0.001083683106,672,-0.0006259890506,672,0.002406127052,
671,0.0009940707823,671,0.002004621085,671,0.003776124679,671,-0.001133515616,671,-0.0006733929622,671,0.002337465761,
670,0.001049934537,670,0.002037649509,670,0.003868571017,670,-0.00109757483,670,-0.0005590875517,670,0.002393502742,
669,0.00108177471,669,0.002032630146,669,0.003818454221,669,-0.00110196427,669,-0.000658040226,669,0.002360134851,
668,0.001097059809,668,0.002050289419,668,0.003839215962,668,-0.001072786283,668,-0.0006126509397,668,0.00235932786,
667,0.001145617687,667,0.002115861746,667,0.003874343121,667,-0.001084406045,667,-0.0005846291897,667,0.002357766265,
666,0.001145877293,666,0.002110997448,666,0.003890771652,666,-0.001074542175,666,-0.0005957450485,666,0.002401832025,
665,0.001089949161,665,0.002054268727,665,0.00388768944,665,-0.001130778808,665,-0.0006699296064,665,0.002338584978,
664,0.001109516714,664,0.002100254642,664,0.003884764155,664,-0.001089725294,664,-0.0006855403772,664,0.002341525862,
663,0.001156778191,663,0.002106653526,663,0.003874029731,663,-0.001085438882,663,-0.0006863157032,663,0.002303607762,
662,0.001161008957,662,0.002145074774,662,0.003930448089,662,-0.001052902779,662,-0.0006375174271,662,0.002320835833,
661,0.001156544662,661,0.002148976782,661,0.00397718139,661,-0.001056001638,661,-0.0006453751703,661,0.002379239071,
660,0.001178684761,660,0.002120908117,660,0.003960488364,660,-0.001060443115,660,-0.0006241796655,660,0.002385355765,
659,0.001179826912,659,0.002142915502,659,0.003965112381,659,-0.001079241745,659,-0.0006747886655,659,0.002320783678,
658,0.001202072017,658,0.002187375678,658,0.004030921962,658,-0.001030539279,658,-0.0006481666933,658,0.002379941754,
657,0.001163448673,657,0.00221224851,657,0.003999988548,657,-0.001033638255,657,-0.0006495107082,657,0.002405007835,
656,0.001214116579,656,0.002194920555,656,0.004031026736,656,-0.001022172044,656,-0.0006448581698,656,0.002391186077,
655,0.001204304397,655,0.002200436313,655,0.004034005105,655,-0.001071598497,655,-0.0006777350209,655,0.002327628201,
654,0.001214895397,654,0.002272016136,654,0.004075968172,654,-0.0009998069145,654,-0.0006303316331,654,0.002433589194,
653,0.001249058056,653,0.002196195535,653,0.004039858002,653,-0.001013184781,653,-0.0006707049906,653,0.002374736127,
652,0.001218996826,652,0.002213705331,652,0.00405950658,652,-0.001009569154,652,-0.0006540598115,652,0.002372107469,
651,0.001219386235,651,0.002237694804,651,0.004107821733,651,-0.001025942503,651,-0.0006844031741,651,0.002404200844,
650,0.001224655891,650,0.002208631951,650,0.004103484098,650,-0.001026045764,650,-0.0006977390731,650,0.002385954373,
649,0.001272838563,649,0.00226293481,649,0.004142264836,649,-0.001004713937,649,-0.000649975962,649,0.002440149197,
648,0.001228705514,648,0.002260098467,648,0.004174985923,648,-0.00095140544,648,-0.000663933286,648,0.002449572785,
647,0.001307758735,647,0.0023098276,647,0.004208938219,647,-0.0009482542519,647,-0.0006632612785,647,0.002453113208,
646,0.001292855712,646,0.002280473476,646,0.004235861357,646,-0.0009701570962,646,-0.0006625375827,646,0.002458684379,
645,0.001304409467,645,0.002280317247,645,0.004188551102,645,-0.0009459296125,645,-0.0007064227248,645,0.002463995013,
644,0.001258455915,644,0.002297180006,644,0.004236253444,644,-0.0009675743058,644,-0.0007145893178,644,0.002413753886,
643,0.001292881672,643,0.002307016868,643,0.004282862879,643,-0.0009462911985,643,-0.0007134522311,643,0.002465479076,
642,0.001280341647,642,0.002281071851,642,0.004253322724,642,-0.0009891146328,642,-0.0007245647721,642,0.002434500493,
641,0.001365948119,641,0.002318935934,641,0.004347073846,641,-0.0008835723274,641,-0.0006509581581,641,0.002493465785,
640,0.001364597818,640,0.00234654895,640,0.004346106201,640,-0.0008511760971,640,-0.0006408776389,640,0.002495184075,
639,0.001329361461,639,0.002327706432,639,0.004329399206,639,-0.000891167263,639,-0.0007193444762,639,0.002492242027,
638,0.001361273928,638,0.002348709153,638,0.004396257922,638,-0.000876235601,638,-0.0007035281742,638,0.002486826852,
637,0.00132702454,637,0.00233270321,637,0.004399212543,637,-0.0008518478135,637,-0.0007480293862,637,0.002448791871,
636,0.00141440623,636,0.002355814446,636,0.004434698727,636,-0.00084373547,636,-0.0006833176594,636,0.002515622182,
635,0.001377633656,635,0.002345742192,635,0.004467285238,635,-0.000864506932,635,-0.000686677522,635,0.002513877582,
634,0.001405368559,634,0.002389520407,634,0.004511905368,634,-0.0008237381699,634,-0.0006553521962,634,0.002521870891,
633,0.001367765828,633,0.002345403656,633,0.004507615697,633,-0.0008744272636,633,-0.000707353116,633,0.002502239542,
632,0.0013779453,632,0.00235308148,632,0.004508400336,632,-0.0008474558126,632,-0.0006924151094,632,0.002512081061,
631,0.0014362738,631,0.002391134156,631,0.004621252418,631,-0.0008356746403,631,-0.0006796476082,631,0.00257282774,
630,0.001415782608,630,0.002359796548,630,0.004604403861,630,-0.0008201726596,630,-0.0006977390731,630,0.002524630632,
629,0.00141671754,629,0.002360863611,629,0.004643020686,629,-0.0008054452483,629,-0.0007059058407,629,0.002503098687,
628,0.001454766025,628,0.00237975968,628,0.004626746755,628,-0.0007839991595,628,-0.0006938623847,628,0.002554522129,
627,0.001473414944,627,0.002366719767,627,0.004655919969,627,-0.000802241324,627,-0.0007355736452,627,0.002566031413,
626,0.001453883015,626,0.002400400583,626,0.004743947648,626,-0.0007806400536,626,-0.0006741683464,626,0.002572957892,
625,0.001522716251,625,0.002470399253,625,0.004797102883,625,-0.0007251332863,625,-0.0006633129669,625,0.002620795509,
624,0.001537237666,624,0.002455143956,624,0.004820764065,624,-0.0006931904354,624,-0.0006553005078,624,0.002674524905,
623,0.001490402268,623,0.002416825388,623,0.004792365246,623,-0.0007315422408,623,-0.00072192878,623,0.002565328265,
622,0.00153282145,622,0.002445667982,622,0.004818277434,622,-0.0007301467704,622,-0.0007140207454,622,0.002624181099,
621,0.001548460103,621,0.00247534574,621,0.004873771686,621,-0.000735677022,621,-0.0006883316091,621,0.002584311413,
620,0.00159109279,620,0.002485238714,620,0.004911784083,620,-0.0007374859997,620,-0.0007168118609,620,0.002622957109,
619,0.001561813289,619,0.002527651144,619,0.004935844336,619,-0.0007881334168,619,-0.0007047170075,619,0.002637801692,
618,0.001578102587,618,0.002526921919,618,0.004984676372,618,-0.0006900373846,618,-0.0006821287679,618,0.002695752773,
617,0.001616139198,617,0.002538977191,617,0.004988342058,617,-0.0007193961646,617,-0.0006828524638,617,0.002658507088,
616,0.001632794272,616,0.002562776441,616,0.005028852262,616,-0.0007328343927,616,-0.00073541858,616,0.002648714231,
615,0.001621569623,615,0.00260490994,615,0.004985514097,615,-0.0007462205249,615,-0.0007079733768,615,0.002665643347,
614,0.001686245669,614,0.002611967269,614,0.005024007522,614,-0.0007681335555,614,-0.000711643137,614,0.002698461758,
613,0.0017252533,613,0.00267363945,613,0.005053259898,613,-0.0007715444663,613,-0.0007356253336,613,0.002708203625,
612,0.001751555013,612,0.002687079133,612,0.00510964822,612,-0.0007005302468,612,-0.0006504929042,612,0.002754154382,
611,0.001794025768,611,0.002740113297,611,0.00508225197,611,-0.0007074048044,611,-0.000709937478,611,0.002751523396,
610,0.001782484935,610,0.002747720107,610,0.005122115836,610,-0.0007472541765,610,-0.0007319040596,610,0.002770254156,
609,0.001877497649,609,0.002830046695,609,0.005138067529,609,-0.0007327827043,609,-0.0007102476084,609,0.002826815704,
608,0.001858103438,608,0.002863919828,608,0.005180765875,608,-0.0007311287918,608,-0.0007046653191,608,0.002842058195,
607,0.001966264332,607,0.002933237469,607,0.005216997582,607,-0.0006845582393,607,-0.0007054406451,607,0.00291684526,
606,0.002005479299,606,0.002964772983,606,0.005237014033,606,-0.0007141758106,606,-0.0007157264045,606,0.002926930785,
605,0.002090630587,605,0.003056056099,605,0.005292535294,605,-0.000680112862,605,-0.0006879181019,605,0.003038642462,
604,0.00213555363,604,0.003148010466,604,0.005320835859,604,-0.0006821804564,604,-0.0007169669261,604,0.003150487551,
603,0.002260332694,603,0.003198545426,603,0.005366749596,603,-0.0006717905053,603,-0.000693397189,603,0.003257249249,
602,0.002357271733,602,0.003253989154,602,0.005415446591,602,-0.0006831109058,602,-0.0007167601725,602,0.003340403084,
601,0.002439732663,601,0.003421459347,601,0.00547017809,601,-0.0006654840545,601,-0.0006439793506,601,0.003465868067,
600,0.002507915488,600,0.003463963047,600,0.005436651409,600,-0.0007055957103,600,-0.0007543863612,600,0.003525912995,
599,0.002648401773,599,0.003531367285,599,0.005455314647,599,-0.000664553605,599,-0.0007564536063,599,0.003654068103,
598,0.002857118845,598,0.00380466599,598,0.005519567989,598,-0.0005949178594,598,-0.0006991863484,598,0.003893043846,
597,0.003034132766,597,0.003987709526,597,0.005585692357,597,-0.0006863673916,597,-0.0007670999621,597,0.004066509195,
596,0.003336959751,596,0.004256956279,596,0.00560522778,596,-0.0005894891801,596,-0.0006941725151,596,0.004379888531,
595,0.003644252894,595,0.004486900754,595,0.00563139841,595,-0.0005508146132,595,-0.0007048720727,595,0.00471131457,
594,0.003986795433,594,0.004849793389,594,0.00569651695,594,-0.0005694284919,594,-0.0007177938824,594,0.005111717153,
593,0.004448637832,593,0.00527476985,593,0.005731191486,593,-0.0005413522595,593,-0.0007123667747,593,0.005569016095,
592,0.004955612123,592,0.005844335072,592,0.005840871949,592,-0.0004945544642,592,-0.0006899340078,592,0.006141225807,
591,0.005593742244,591,0.006423370913,591,0.005808182526,591,-0.0005196345737,591,-0.0007047686959,591,0.006741032936,
590,0.006264902651,590,0.007066188846,590,0.005824107211,590,-0.0005243918858,590,-0.0007392432308,590,0.007457577623,
589,0.007164891344,589,0.008032651618,589,0.005827491637,589,-0.0005209273077,589,-0.0007424993091,589,0.008375243284,
588,0.008175253868,588,0.009054578841,588,0.005923314951,588,-0.0004611465847,588,-0.0006828007754,588,0.009508642368,
587,0.009480834007,587,0.01028492767,587,0.006000497844,587,-0.0003784432483,587,-0.0007474091835,587,0.01082238369,
586,0.01087105926,586,0.01168690715,586,0.005963886157,586,-0.0004523546086,586,-0.000788856938,586,0.01234007254,
585,0.01264671516,585,0.0134179024,585,0.006028608419,585,-0.0004328047507,585,-0.0007805366768,585,0.01421215292,
584,0.01474155951,584,0.01550161652,584,0.006054463331,584,-0.0003740464454,584,-0.0007792963879,584,0.01640656218,
583,0.01724796928,583,0.01798034832,583,0.006052835844,583,-0.0003492683172,583,-0.000789425394,583,0.01896762103,
582,0.02024795115,582,0.02092236094,582,0.006087197457,582,-0.0003585796803,582,-0.0007817769656,582,0.02203569934,
581,0.02374834195,581,0.02440789528,581,0.006156979129,581,-0.0002820137015,581,-0.0008587199263,581,0.02573638596,
580,0.02794606239,580,0.02864006162,580,0.006143221166,580,-0.0002674232528,580,-0.0008126281318,580,0.03016248718,
579,0.03284828737,579,0.03350336477,579,0.006178194191,579,-0.0003007425694,579,-0.0008562398143,579,0.0352049917,
578,0.03878221288,578,0.03937116265,578,0.006234046072,578,-0.0002405175765,578,-0.0008761322824,578,0.0413782075,
577,0.04574947804,577,0.04626568034,577,0.006275670603,577,-0.0001871152344,577,-0.0008727221866,577,0.04845541716,
576,0.05395120382,576,0.05439321697,576,0.006310233381,576,-0.0001253217779,576,-0.00087354891,576,0.0569213815,
575,0.0636074543,575,0.06393513829,575,0.006289747544,575,-0.000134586182,575,-0.0009288300062,575,0.06686262786,
574,0.07490374893,574,0.07513772696,574,0.006361479405,574,-7.216408267E-5,574,-0.0008859490044,574,0.07834348083,
573,0.08818931878,573,0.08829510212,573,0.006357644219,573,-1.941404298E-5,573,-0.0009567778907,573,0.09192967415,
572,0.1036436558,572,0.1035476774,572,0.006355017424,572,-2.847363248E-5,572,-0.001032501925,572,0.1075790077,
571,0.1213642433,571,0.1212280244,571,0.006382993422,571,2.285791197E-5,571,-0.00101333973,571,0.1256363839,
570,0.1420722604,570,0.1416798383,570,0.006412337068,570,7.644799189E-5,570,-0.0009673160384,570,0.1464526355,
569,0.1651596278,569,0.1646258831,569,0.006895887665,569,7.287511835E-5,569,-0.0009088882944,569,0.1698071957,
568,0.1925468147,568,0.1916528493,568,0.006909484975,568,0.0001686280448,568,-0.0009708803263,568,0.1972455233,
567,0.2229733318,567,0.2218063623,567,0.006940600462,567,0.0001875066519,567,-0.0009281584062,567,0.2278689295,
566,0.2569268644,566,0.2554663122,566,0.006946676411,566,0.0002433444897,566,-0.000970105466,566,0.2616591752,
565,0.2947878242,565,0.2930868268,565,0.007021910511,565,0.0002596880076,565,-0.000995054841,565,0.2995136082,
564,0.3361091316,564,0.334024936,564,0.007059690077,564,0.0003396013344,564,-0.0009720684029,564,0.3406140208,
563,0.3806745708,563,0.3783112764,563,0.007043194026,563,0.0004016252351,563,-0.0009988255333,563,0.3847875595,
562,0.4283984005,562,0.4255944192,562,0.007033617701,562,0.0004533445172,562,-0.001060598064,562,0.431725353,
561,0.4788091183,561,0.4756259918,561,0.007140312344,561,0.00054114667,561,-0.001039577764,561,0.4815368056,
560,0.5311627984,560,0.5276646614,560,0.007097920869,560,0.0005408874713,560,-0.001083941315,560,0.5329621434,
559,0.5843491554,559,0.5805042982,559,0.007149811834,559,0.0006307034055,559,-0.001073147752,559,0.5850747228,
558,0.6369922161,558,0.6328459382,558,0.007221870124,558,0.0006980581093,558,-0.001062250696,558,0.6363686919,
557,0.6884474158,557,0.6840925217,557,0.007133417763,557,0.0007190859178,557,-0.001176527119,557,0.6863940954,
556,0.7372733951,556,0.732689023,556,0.007261404768,556,0.0007603407139,556,-0.001138421125,556,0.7336283326,
555,0.7822380662,555,0.7775895596,555,0.007308445405,555,0.0008772548754,555,-0.001121122623,555,0.7767228484,
554,0.8218200803,554,0.816896379,554,0.007276434917,554,0.0007876731688,554,-0.001180502702,554,0.8146053553,
553,0.8550091386,553,0.8501018286,553,0.007387323305,553,0.0008965533925,553,-0.001156286919,553,0.8461659551,
552,0.8813654184,552,0.8762233853,552,0.007406096905,552,0.0009254249744,552,-0.001156751649,552,0.8709444404,
551,0.8998560905,551,0.8948122859,551,0.007453232072,551,0.0009013263043,551,-0.001142035704,551,0.888063252,
550,0.9103405476,550,0.905341804,550,0.007590665016,550,0.0009404451703,550,-0.001125305309,550,0.8973299265,
549,0.9130596519,549,0.9080523849,549,0.007548914291,549,0.0008772548754,549,-0.001189383212,549,0.8988460302,
548,0.9080700874,548,0.9031338096,548,0.007630127948,548,0.0008803934325,548,-0.00119919295,548,0.8928983212,
547,0.8958601952,547,0.8909721971,547,0.007671438158,547,0.0008710297407,547,-0.00115706143,547,0.8802800179,
546,0.8771935701,546,0.8725790977,546,0.007800031919,546,0.0008564528544,546,-0.001129797776,546,0.8613615632,
545,0.853454113,545,0.8488789201,545,0.007925869897,545,0.0008276117733,545,-0.001110691461,545,0.8375355005,
544,0.8251110911,544,0.8207907677,544,0.008007786237,544,0.0008616143605,544,-0.001048616134,544,0.809463203,
543,0.7936089039,543,0.7894381285,543,0.008024029434,543,0.0007733065868,543,-0.001039887662,543,0.7782565355,
542,0.7596018314,542,0.7556905746,542,0.008125138469,542,0.0007698576082,542,-0.001008846099,542,0.7447988391,
541,0.7239264846,541,0.7201797962,541,0.008161906153,541,0.0006578721805,541,-0.001024238067,541,0.7097894549,
540,0.6876662374,540,0.6839817166,540,0.008297136053,540,0.0006771350745,540,-0.0009800749831,540,0.6743378043,
539,0.6511154771,539,0.6477294564,539,0.00839516893,539,0.0005917160888,539,-0.0009575011209,539,0.6385334134,
538,0.6151851416,538,0.6120273471,538,0.008447769098,538,0.0005728976685,538,-0.0009362691781,538,0.6034985185,
537,0.5804989338,537,0.577583611,537,0.008573003113,537,0.0005259329337,537,-0.0009422100848,537,0.5697365403,
536,0.5474355221,536,0.5446388125,536,0.008699011058,536,0.0005672471016,536,-0.00083474454,536,0.5374354124,
535,0.5158962011,535,0.5133065581,535,0.008750038221,535,0.0005423129769,535,-0.0009021719452,535,0.5068084598,
534,0.4862823784,534,0.4839069843,534,0.008748189546,534,0.0004969842266,534,-0.0009191692225,534,0.4780424535,
533,0.4587846696,533,0.4566070139,533,0.008861593902,533,0.0004783772165,533,-0.0008784573292,533,0.451177448,
532,0.4335527122,532,0.4316697419,532,0.00892994646,532,0.000480813178,532,-0.0009271252202,532,0.4267263114,
531,0.4104098678,531,0.4086500704,531,0.009038534947,531,0.0004952478921,531,-0.0008423403488,531,0.404304266,
530,0.3896397948,530,0.3878869116,530,0.009068164974,530,0.0005050440668,530,-0.0008778373012,530,0.3840427101,
529,0.3710171878,529,0.3694195747,529,0.009197040461,529,0.0004761226592,529,-0.0008158836863,529,0.3660122752,
528,0.354628861,528,0.3531373739,528,0.009241779335,528,0.000539202767,528,-0.0008437871584,528,0.3501425982,
527,0.3404496908,527,0.3390679061,527,0.009372399189,527,0.000554080063,527,-0.0007891153218,527,0.3363744915,
526,0.3283652663,526,0.3270307183,526,0.009404908866,526,0.0005502440617,526,-0.0008331943536,526,0.3247029185,
525,0.3182311356,525,0.3170401454,525,0.009526289999,525,0.0005735974992,525,-0.0008181573357,525,0.3149645627,
524,0.3101042509,524,0.3089917004,524,0.00948276557,524,0.0005849766312,524,-0.0008998987032,524,0.3070952594,
523,0.3038916886,523,0.3026874065,523,0.009685794823,523,0.000684550032,523,-0.0008000192465,523,0.3010649085,
522,0.2992299497,522,0.2980408967,522,0.009734236635,522,0.0006973321433,522,-0.0008063754067,522,0.296618253,
521,0.2961590588,521,0.294927597,521,0.00983185228,521,0.0007861172198,521,-0.0007857045857,521,0.2935816646,
520,0.2942685783,520,0.2931248844,520,0.009888335131,520,0.0008194940747,520,-0.0007870998816,520,0.2917931378,
519,0.2933846414,519,0.29224962,519,0.009934284724,519,0.0007883993094,519,-0.000796970271,519,0.2909209728,
518,0.2934457064,518,0.2922014892,518,0.0100327665,518,0.0009479944129,518,-0.0007981071831,518,0.2909104526,
517,0.2937912941,517,0.2926829159,517,0.01011394244,517,0.001014152891,517,-0.0008400668157,517,0.2912990749,
516,0.2944821417,516,0.2933670878,516,0.01019666996,516,0.001094646403,516,-0.000833091035,516,0.2918376625,
515,0.2951027751,515,0.293935746,515,0.01033166051,515,0.001191922696,515,-0.0007819837192,515,0.292299062,
514,0.2953013778,514,0.294167906,514,0.01042713039,514,0.001311134081,514,-0.0007331961533,514,0.2923540473,
513,0.294785589,513,0.2936516404,513,0.01039080601,513,0.001288000611,513,-0.0008242032491,513,0.2916764021,
512,0.2935117483,512,0.2923803031,512,0.01059969794,512,0.001492947806,512,-0.0007386747166,512,0.2901394963,
511,0.2909676135,511,0.2898982167,511,0.01061898191,511,0.001525807544,511,-0.0008125248132,511,0.2875286043,
510,0.2872875035,510,0.2862350047,510,0.01071048249,510,0.001601771102,510,-0.0007951615844,510,0.2836996317,
509,0.2823071182,509,0.2813614905,509,0.01083796285,509,0.001739755506,509,-0.0007597095682,509,0.2786172628,
508,0.2760103047,508,0.2750362158,508,0.01089170948,508,0.001811285503,508,-0.0007303018356,508,0.2722548842,
507,0.2685018778,507,0.2675801814,507,0.01096911635,507,0.001911452506,507,-0.0007505618269,507,0.2646955848,
506,0.2598667145,506,0.2590101957,506,0.01109752245,506,0.002076168777,506,-0.0007215152727,506,0.2561301291,
505,0.2503437996,505,0.2494659722,505,0.01118992083,505,0.002189014805,505,-0.000758572598,505,0.2466217726,
504,0.2398825288,504,0.2391465008,504,0.01130051073,504,0.002377391094,504,-0.0007130904123,504,0.2363467366,
503,0.2289733738,503,0.2283281535,503,0.01138965692,503,0.002496668138,503,-0.0007253917283,503,0.2255457491,
502,0.2177554071,502,0.2171684504,502,0.01149301417,502,0.00266882102,502,-0.0006717388169,502,0.2144630253,
501,0.2063907832,501,0.2058493793,501,0.01155316923,501,0.002813449828,501,-0.0007637406816,501,0.2032748163,
500,0.1950442195,500,0.1945652962,500,0.01165154111,500,0.002989064669,500,-0.0007339714211,500,0.1921541542,
499,0.1840535998,499,0.183594659,499,0.01182887796,499,0.003216565121,499,-0.00067013636,499,0.1813624054,
498,0.1732349247,498,0.1729519218,498,0.01185486745,498,0.003354567802,498,-0.0007146926946,498,0.1708107442,
497,0.162954554,497,0.162684679,497,0.01196533442,497,0.003605724778,497,-0.0006879697903,497,0.1607077718,
496,0.1531866044,496,0.1530041695,496,0.01208847202,496,0.003897771472,496,-0.0006555589498,496,0.1511855572,
495,0.1440228671,495,0.1438585073,495,0.01213832851,495,0.004034919664,495,-0.0006931904354,495,0.1422110498,
494,0.1354910433,494,0.1353733689,494,0.01232989877,494,0.004319019616,494,-0.0006569029647,494,0.1338045895,
493,0.1276221275,493,0.1275632679,493,0.01242857985,493,0.004554908723,493,-0.0006409293273,493,0.1261385679,
492,0.1203457117,492,0.1203102916,492,0.01253013313,492,0.004809064325,492,-0.000649975962,492,0.1189699098,
491,0.1136337891,491,0.1136317402,491,0.01260559447,491,0.005046660081,491,-0.000699393102,491,0.1123966053,
490,0.1075704172,490,0.1076307073,490,0.01269591507,490,0.005379382055,490,-0.000666517939,490,0.1065218598,
489,0.1020286158,489,0.1021567881,489,0.0128287524,489,0.005616713315,489,-0.0006560242036,489,0.1011058092,
488,0.09709778428,488,0.09731845558,488,0.01296288241,488,0.005938955117,488,-0.0006225253455,488,0.09628863633,
487,0.09267465025,487,0.09287589788,487,0.01304826234,487,0.006212592125,487,-0.0005810617586,487,0.09192890674,
486,0.0887029469,486,0.08897085488,486,0.01319588348,486,0.00651554158,486,-0.0005834400654,486,0.08803049475,
485,0.08511635661,485,0.08536943048,485,0.01325427275,485,0.006768244784,485,-0.0005930566113,485,0.08452869952,
484,0.08195927739,484,0.08219271898,484,0.01339267287,484,0.007160128094,484,-0.0005881449324,484,0.08143301308,
483,0.07899457216,483,0.07938224822,483,0.01353039686,483,0.007442619652,483,-0.0005495219375,483,0.07855060697,
482,0.07643438131,482,0.07677337527,482,0.01361652929,482,0.007725427393,482,-0.0005315276794,482,0.075961411,
481,0.07404829562,481,0.07435701787,481,0.01370310597,481,0.008022578433,481,-0.0004940890358,481,0.0735591799,
480,0.07178643346,480,0.07211346924,480,0.01384755597,480,0.00835291855,480,-0.0004712829832,480,0.07133124769,
479,0.06963670254,479,0.07000847906,479,0.01395858452,479,0.008692356758,479,-0.0004681283317,479,0.069240354,
478,0.06756518036,478,0.06800471991,478,0.01409589872,478,0.008952274919,478,-0.0004152194597,478,0.06718116999,
477,0.06551502645,477,0.06598003209,477,0.01417580526,477,0.00934333168,477,-0.0004596984945,477,0.06515408307,
476,0.06355812401,476,0.06395724416,476,0.01435289159,476,0.009718512185,476,-0.0003693909384,476,0.06319949776,
475,0.06153427064,475,0.06196168438,475,0.01447582524,475,0.01007088833,475,-0.0002667506342,475,0.06117754802,
474,0.05947061256,474,0.05992660299,474,0.0146011496,474,0.01040096115,474,-0.0001702445297,474,0.05912542716,
473,0.05738595873,473,0.05783908442,473,0.01471847575,473,0.01081811078,473,-0.0001195767109,473,0.05707297847,
472,0.05528815463,472,0.05581211671,472,0.01487558614,472,0.01115297526,472,1.7706363E-5,472,0.05501214042,
471,0.05318071321,471,0.05367885157,471,0.01496209297,471,0.01163120009,471,0.0001325304911,471,0.05292644724,
470,0.0510244593,470,0.05153566599,470,0.01509243529,470,0.01199218445,470,0.000309939729,470,0.05079569295,
469,0.04893973097,469,0.04951825738,469,0.01523075253,469,0.01238913089,469,0.0004482656077,469,0.04868828505,
468,0.04689036682,468,0.04750249535,468,0.01539367996,468,0.01285901479,468,0.0007520687068,468,0.04669555649,
467,0.04489497468,467,0.0455076322,467,0.01551757846,467,0.01334176585,467,0.001011013403,467,0.04470507428,
466,0.04298092425,466,0.04358715937,466,0.01572656259,466,0.01370334718,466,0.001314094057,466,0.04283782467,
465,0.04111351073,465,0.04178317636,465,0.01583742723,465,0.01416788809,465,0.001617464353,465,0.0410419777,
464,0.03941010684,464,0.04003755003,464,0.0159851145,464,0.01457261201,464,0.002050393494,464,0.03930714354,
463,0.03782469779,463,0.03844965622,463,0.01611917466,463,0.0150531726,463,0.002591732889,463,0.03771699965,
462,0.03628310189,462,0.03697120398,462,0.01631076261,462,0.01553198509,462,0.003149027238,462,0.0363051407,
461,0.03497949243,461,0.0356307961,461,0.01646535844,461,0.01597791538,461,0.003803334199,461,0.03490915895,
460,0.03360722587,460,0.03435118496,460,0.01658464223,460,0.0163888745,460,0.004531392362,460,0.03365404904,
459,0.03253681585,459,0.03324823081,459,0.01674267091,459,0.01678787172,459,0.005299112294,459,0.03251898661,
458,0.03148128092,458,0.03221803904,458,0.01692721434,458,0.01726501808,458,0.006330851931,458,0.03155721352,
457,0.03064262122,457,0.03136343136,457,0.01706234738,457,0.01767228916,457,0.007428663317,457,0.03065340035,
456,0.02974733151,456,0.03049775399,456,0.01726668887,456,0.01803012937,456,0.008505551144,456,0.02986513451,
455,0.02904690988,455,0.02974611148,455,0.01739096083,455,0.01841494627,455,0.009747182019,455,0.02912806533,
454,0.02842305973,454,0.02915715985,454,0.01760933921,454,0.01873666607,454,0.01112992223,454,0.0285275951,
453,0.02791561373,453,0.02865228429,453,0.01780967787,453,0.01919155568,453,0.01264167856,453,0.02795379236,
452,0.02736409381,452,0.02812730893,452,0.01795541868,452,0.01941823214,452,0.0142201772,452,0.02752380632,
451,0.02691524662,451,0.02766213939,451,0.01811448671,451,0.01976277679,451,0.01585525461,451,0.02706085332,
450,0.0265569482,450,0.02735083364,450,0.01835396886,450,0.02009929717,450,0.01774881221,450,0.02669621445,
449,0.02622363716,449,0.02699311264,449,0.01849940605,449,0.02032446861,449,0.01966991834,449,0.02631595545,
448,0.02589621395,448,0.02673098259,448,0.01870488375,448,0.02071221918,448,0.02170341834,448,0.02604626305,
447,0.02559756674,447,0.02642518282,447,0.01884500496,447,0.02086192556,447,0.02374022268,447,0.02572501451,
446,0.02552291565,446,0.02629387192,446,0.01909974031,446,0.02119174413,446,0.02602457628,446,0.02559070103,
445,0.0253271386,445,0.02604219504,445,0.01930980571,445,0.02142830566,445,0.02833167464,445,0.02543370239,
444,0.02508164383,444,0.02591470629,444,0.01947196946,444,0.02180044167,444,0.03067115135,444,0.02519300207,
443,0.02490944788,443,0.02572493255,443,0.01968812011,443,0.02205762267,443,0.03296157345,443,0.02504851483,
442,0.02481060475,442,0.02561233938,442,0.01993074641,442,0.0223172754,442,0.03537016734,442,0.02490465157,
441,0.02464492805,441,0.02548028342,441,0.02016618848,441,0.02261468396,441,0.03781501204,441,0.02475283295,
440,0.02443380095,440,0.02525305562,440,0.02030298486,440,0.02285224013,440,0.04012785479,440,0.02458764426,
439,0.02434878051,439,0.02516771108,439,0.0205833558,439,0.02320571989,439,0.04272964224,439,0.02447474189,
438,0.02426596917,438,0.02507160604,438,0.02088732086,438,0.02346113883,438,0.04511198401,438,0.02443081513,
437,0.02412695996,437,0.02490912005,437,0.02107116207,437,0.02373100817,437,0.04751393199,437,0.02422482707,
436,0.02397369035,436,0.02480443753,436,0.02129841223,436,0.02396635897,436,0.04983376712,436,0.02415188961,
435,0.02382933348,435,0.02464191429,435,0.02155089192,435,0.02422532067,435,0.05217823014,435,0.02393421903,
434,0.02369196899,434,0.02449829504,434,0.02174467407,434,0.02443092503,434,0.05453307182,434,0.02380734868,
433,0.02351417579,433,0.02436991781,433,0.02200745977,433,0.02464391477,433,0.05680981278,433,0.02364057861,
432,0.02342070453,432,0.02426443622,432,0.02225168608,432,0.02481315285,432,0.05906474218,432,0.02349712513,
431,0.02337297797,431,0.02416872047,431,0.02257937193,431,0.02510097809,431,0.06137827784,431,0.02350515872,
430,0.02306844294,430,0.02389425784,430,0.02277795039,430,0.02511137351,430,0.06348912418,430,0.02326527983,
429,0.02299831994,429,0.02382605337,429,0.02311348729,429,0.0253596846,429,0.06595282257,429,0.02315596864,
428,0.02277519554,428,0.02366198227,428,0.02334568836,428,0.02538666129,428,0.06812477112,428,0.02298298106,
427,0.02261362039,427,0.0234905947,427,0.02364347503,427,0.02544899099,427,0.0704344511,427,0.02284872159,
426,0.02251221798,426,0.02333713882,426,0.02391622029,426,0.02551127598,426,0.07278512418,426,0.02267599106,
425,0.02222798206,425,0.02309748903,425,0.02427100576,425,0.02552508377,425,0.0751921162,425,0.02248280123,
424,0.02207360975,424,0.02286350913,424,0.02450092323,424,0.02547844313,424,0.07753270119,424,0.02229411155,
423,0.02172565088,423,0.02256620117,423,0.02479906566,423,0.02546062879,423,0.07989869267,423,0.02201682702,
422,0.02162758261,422,0.02246412821,422,0.02517253906,422,0.02546568029,422,0.08244226873,422,0.02183936536,
421,0.02137361839,421,0.02217711881,421,0.02549971826,421,0.02540257946,421,0.08495027572,421,0.02161332592,
420,0.02097930014,420,0.02187886462,420,0.02575083449,420,0.02529083565,420,0.08732821047,420,0.02130947821,
419,0.02079821378,419,0.02171705104,419,0.02617057227,419,0.02527813241,419,0.08980712295,419,0.02108781785,
418,0.0205081515,418,0.0213092342,418,0.02647778578,418,0.02522381023,418,0.09220639616,418,0.02079617791,
417,0.02014064603,417,0.02097726241,417,0.02675639279,417,0.025040837,417,0.09449020773,417,0.02037294582,
416,0.01987939328,416,0.02070100792,416,0.0270357281,416,0.02494832315,416,0.09681977332,416,0.02017529868,
415,0.01966734417,415,0.02045433968,415,0.02757745236,415,0.02496450022,415,0.09904459119,415,0.01990221068,
414,0.01929602958,414,0.02019032277,414,0.02790896036,414,0.02482559718,414,0.1010978371,414,0.01957168989,
413,0.0189688392,413,0.01988841593,413,0.02827354334,413,0.02473828197,413,0.1030590907,413,0.01928639598,
412,0.01862997562,412,0.01946122199,412,0.02860989608,412,0.0246596951,412,0.1047120318,412,0.01899350062,
411,0.01832699217,411,0.01915481687,411,0.02898240089,411,0.02453685924,411,0.1063387543,411,0.01865499839,
410,0.01798768714,410,0.01880753785,410,0.02938812971,410,0.0243255645,410,0.1077634916,410,0.01827075146,
409,0.01780854538,409,0.01853781939,409,0.02976421267,409,0.02429465577,409,0.1091091484,409,0.01809270866,
408,0.01749643125,408,0.01832075603,408,0.03030571714,408,0.02415917069,408,0.1102189645,408,0.01782545447,
407,0.01723466255,407,0.0179893598,407,0.03064459376,407,0.02391704172,407,0.1111477539,407,0.01751869358,
406,0.01692559943,406,0.01774239354,406,0.03103942238,406,0.02378325909,406,0.112048246,406,0.01729068905,
405,0.01656006277,405,0.01747365855,405,0.03142395243,405,0.0234541446,405,0.1126265675,405,0.01699176058,
404,0.01626335643,404,0.01716964878,404,0.03185887635,404,0.02322614565,404,0.1133113876,404,0.01664335467,
403,0.01607383043,403,0.01696535386,403,0.03230609,403,0.02298852056,403,0.1138867438,403,0.01641516574,
402,0.01594343409,402,0.01672123,402,0.03289888427,402,0.02271103859,402,0.1144515127,402,0.01628947817,
401,0.01573225297,401,0.01658889093,401,0.03341551498,401,0.0224796664,401,0.1149717495,401,0.01613983512,
400,0.01548629906,400,0.01628816128,400,0.03378732502,400,0.02208028361,400,0.1152648032,400,0.01576330885,
399,0.01522370148,399,0.01607425883,399,0.03425308317,399,0.02180076763,399,0.1156357899,399,0.01564623602,
398,0.01505461987,398,0.01594034582,398,0.03482248634,398,0.0214444045,398,0.1159634367,398,0.01546698436,
397,0.01488493476,397,0.01570600271,397,0.03524788469,397,0.02106355317,397,0.1161932647,397,0.01527753752,
396,0.01479613967,396,0.01562071592,396,0.03593957424,396,0.02073554322,396,0.1165997759,396,0.01520694606,
395,0.01466674358,395,0.01555680204,395,0.0364494808,395,0.02034261636,395,0.1168381348,395,0.01494339108,
394,0.01454688795,394,0.01542586461,394,0.03697247058,394,0.01999899372,394,0.1170506328,394,0.01488865819,
393,0.01454924326,393,0.01539681759,393,0.03768681735,393,0.01972585358,393,0.1172991768,393,0.01488589961,
392,0.01441756543,392,0.01526775118,392,0.03807510436,392,0.01938298903,392,0.117364563,392,0.01471287943,
391,0.01430877391,391,0.01528080925,391,0.03870939091,391,0.01896599866,391,0.1175115854,391,0.0146937333,
390,0.01437234413,390,0.01528241765,390,0.03934820741,390,0.01861225069,390,0.117583558,390,0.01475267299,
389,0.01447628066,389,0.01537981443,389,0.04008924216,389,0.01837762445,389,0.1177670509,389,0.01477830298,
388,0.01451152936,388,0.01545885671,388,0.0407711193,388,0.01813540421,388,0.1178821847,388,0.01483955793,
387,0.01460669097,387,0.0155764427,387,0.04146286845,387,0.01775771007,387,0.1178799793,387,0.01496825553,
386,0.01471783314,386,0.01564851776,386,0.0421076864,386,0.01730181463,386,0.1180744991,386,0.0150467949,
385,0.0150195146,385,0.01593416929,385,0.04286973551,385,0.01721386984,385,0.1183127537,385,0.01537235826,
384,0.01523914374,384,0.01627929136,384,0.04361180216,384,0.01686959341,384,0.1187350377,384,0.01556329522,
383,0.01553238742,383,0.01650493778,383,0.04428530484,383,0.01646094956,383,0.1189741343,383,0.01585401967,
382,0.01591652818,382,0.01682629436,382,0.04512246698,382,0.01614133827,382,0.1194297448,382,0.01612363383,
381,0.01621565782,381,0.01712567545,381,0.04603966326,381,0.01581517234,381,0.1201578155,381,0.01647686586,
380,0.01659305952,380,0.01758942008,380,0.04675015435,380,0.01547181327,380,0.1208495647,380,0.0168939475,
379,0.01711170003,379,0.01805959642,379,0.0477482006,379,0.01515370701,379,0.1217216328,379,0.01740416326,
378,0.01761518978,378,0.01855192147,378,0.04846615344,378,0.01480460353,378,0.1226361021,378,0.01778211631,
377,0.01815669984,377,0.01910663769,377,0.04938299581,377,0.01455301791,377,0.1236991882,377,0.01846099645,
376,0.01876096427,376,0.01967966929,376,0.05029288307,376,0.01416280679,376,0.1249672845,376,0.01893917471,
375,0.01944473386,375,0.02041925676,375,0.05119780451,375,0.01389007643,375,0.1262417585,375,0.01963335462,
374,0.02026319504,374,0.02112887986,374,0.05216699466,374,0.01363461278,374,0.1276243925,374,0.02036963589,
373,0.02111578174,373,0.02206544019,373,0.05324894562,373,0.01337929815,373,0.1292002797,373,0.02126562595,
372,0.02188548073,372,0.02279663831,372,0.05409033224,372,0.01299926266,372,0.1306066215,372,0.02194578573,
371,0.02286282741,371,0.02376953326,371,0.05507643521,371,0.01273091324,371,0.1318831891,371,0.02298767492,
370,0.02399538271,370,0.02487016656,370,0.05622279644,370,0.0126390662,370,0.1333281547,370,0.02407814376,
369,0.02500277571,369,0.0259183608,369,0.05726221949,369,0.01226447057,369,0.1344421506,369,0.02508295886,
368,0.02612913959,368,0.02690607682,368,0.05825541168,368,0.01211783104,368,0.1355300099,368,0.02619157732,
367,0.02737534232,367,0.02825870737,367,0.05946215242,367,0.01193795446,367,0.1363180578,367,0.02741887793,
366,0.02863939852,366,0.02953096479,366,0.0604708381,366,0.0116256699,366,0.1365935504,366,0.02860898525,
365,0.02995542809,365,0.03074132837,365,0.06163217127,365,0.01151164714,365,0.1365197152,365,0.03002540767,
364,0.03130455688,364,0.03206405789,364,0.06280823052,364,0.01139398851,364,0.1361203045,364,0.03135421872,
363,0.03253252059,363,0.03352218121,363,0.06403724104,363,0.01116922963,363,0.1350898147,363,0.03250612691,
362,0.03387647867,362,0.03468886018,362,0.06515862793,362,0.0110657895,362,0.1334286034,362,0.0338222757,
361,0.03515247256,361,0.03589782119,361,0.06638663262,361,0.0109370742,361,0.1313088536,361,0.03511253372,
360,0.03619494662,360,0.03706445172,360,0.0675419271,360,0.01078968868,360,0.1286693215,360,0.0360917002,
359,0.0372300297,359,0.03809041902,359,0.06884087622,359,0.01069795992,359,0.1256643534,359,0.03716609627,
358,0.0380656682,358,0.03895713761,358,0.06994117796,358,0.01045597997,358,0.1221277639,358,0.03790033609,
357,0.0387432687,357,0.03974064812,357,0.07121530175,357,0.01043712627,357,0.1186472625,357,0.03880864754,
356,0.03930342942,356,0.04018960893,356,0.07254445553,356,0.01017356198,356,0.1147575676,356,0.03915131092,
355,0.0397935845,355,0.04063627869,355,0.07385509461,355,0.01030464843,355,0.1111321747,355,0.03970022872,
354,0.0399832502,354,0.04079414904,354,0.0750939697,354,0.01013720594,354,0.1072326303,354,0.03993083164,
353,0.04004629329,353,0.04078326002,353,0.07638131827,353,0.01004113723,353,0.1036675796,353,0.0399572514,
352,0.03976669163,352,0.04071007669,352,0.077736862,352,0.009967629798,352,0.1001108587,352,0.04000467807,
351,0.03977681696,351,0.04055024311,351,0.07908211648,351,0.00976611115,351,0.09674718231,351,0.03977420926,
350,0.03947105259,350,0.04026057571,350,0.08057474345,350,0.009714674205,350,0.09337106347,350,0.03950890154,
349,0.03930116445,349,0.03988869116,349,0.08079805225,349,0.007658080664,349,0.09010654688,349,0.03890999407,
348,0.03909171373,348,0.04265138879,348,0.08463796228,348,0.009329921566,348,0.08768691123,348,0.03843294084,
347,0.03839385882,347,0.03975800797,347,0.08415900171,347,0.009773842059,347,0.08375331759,347,0.03907749429,
346,0.03871318325,346,0.04036038741,346,0.08631736785,346,0.008027799428,346,0.08090978116,346,0.03832616284,
345,0.0382999815,345,0.0411504209,345,0.08823479712,345,0.009566035122,345,0.07789438218,345,0.03832158446,
344,0.03849850222,344,0.03974087536,344,0.08900037408,344,0.008744807914,344,0.074398458,344,0.03862868994,
343,0.03892701119,343,0.04126065597,343,0.0918770209,343,0.008738627657,343,0.07196570188,343,0.03843723983,
342,0.03931408376,342,0.04101642966,342,0.09345082939,342,0.009357905015,342,0.06849495322,342,0.03926900029,
341,0.03910103068,341,0.04110471904,341,0.09435801208,341,0.008349619806,341,0.06507246941,341,0.03959274292,
340,0.04010911658,340,0.04237484559,340,0.09667366743,340,0.008690797724,340,0.06212630868,340,0.0403255634,
339,0.04105907679,339,0.04335283488,339,0.09885648638,339,0.009018977173,339,0.05956029892,339,0.04130304232,
338,0.04246586561,338,0.04420542344,338,0.09997811168,338,0.00857566949,338,0.05671647564,338,0.04247083142,
337,0.0434480086,337,0.04557044432,337,0.1018122211,337,0.008663148619,337,0.0544064194,337,0.04358593002,
336,0.04517221078,336,0.04757587984,336,0.1037675366,336,0.008451543748,336,0.05252623558,336,0.04528459162,
335,0.04722558707,335,0.04901107028,335,0.1055768505,335,0.008037213236,335,0.05091125518,335,0.04737934843,
334,0.04946563393,334,0.05156895518,334,0.1077844948,334,0.00820015464,334,0.04984122887,334,0.04939781502,
333,0.05178188905,333,0.05369970948,333,0.1095767468,333,0.008154969662,333,0.04860475287,333,0.0519480966,
332,0.05510637909,332,0.05698811263,332,0.1116630062,332,0.007889912464,332,0.04866190627,332,0.05500153452,
331,0.05780729279,331,0.05957633257,331,0.1133762449,331,0.008119758219,331,0.0481315963,331,0.0580618605,
330,0.06126606837,330,0.06351087242,330,0.1153883263,330,0.007743820548,330,0.04885658622,330,0.06168787554,
329,0.06507439166,329,0.06719854474,329,0.1174151748,329,0.007885984145,329,0.05021749809,329,0.06518398225,
328,0.06903191656,328,0.07115742564,328,0.1192768216,328,0.007137128152,328,0.05143777281,328,0.06918786466,
327,0.0736740604,327,0.07531361282,327,0.1216880232,327,0.007296730764,327,0.05310891941,327,0.07380314916,
326,0.07774556428,326,0.07985112071,326,0.1235496402,326,0.007073292974,326,0.05479841307,326,0.07791256905,
325,0.08297064155,325,0.08478800207,325,0.1258133203,325,0.007353332359,325,0.05666948855,325,0.08287388831,
324,0.08742260933,324,0.08937762678,324,0.1274511665,324,0.006850074977,324,0.05833955109,324,0.08718685061,
323,0.09215502441,323,0.09395346045,323,0.1294918358,323,0.006947333924,323,0.05970316753,323,0.09195116907,
322,0.09691049159,322,0.09890875965,322,0.1315876096,322,0.00674439827,322,0.06113531813,322,0.09640765935,
321,0.1014228761,321,0.1033145264,321,0.1337819993,321,0.006279688794,321,0.0617663227,321,0.100624077,
320,0.1055455282,320,0.107377097,320,0.1357356459,320,0.006436218042,320,0.06204266101,320,0.1047347635,
319,0.1094363108,319,0.1110086888,319,0.1379661709,319,0.006041049957,319,0.06159714982,319,0.1083793491,
318,0.1124133766,318,0.1143346205,318,0.1398261786,318,0.006006849464,318,0.06068139151,318,0.1111612618,
317,0.1149289757,317,0.1170040965,317,0.1419908404,317,0.0059839366,317,0.059658885,317,0.1138613746,
316,0.1171998233,316,0.1190144047,316,0.1442867219,316,0.006071683019,316,0.05870440975,316,0.1156454533,
315,0.1181280464,315,0.1200793758,315,0.1460756958,315,0.005392302759,315,0.05714991689,315,0.1164209098,
314,0.1183951572,314,0.1203009412,314,0.1484299004,314,0.005498909391,314,0.05565796047,314,0.1168230325,
313,0.1180457622,313,0.1199445799,313,0.1502786875,313,0.005044303369,313,0.05430171639,313,0.1164665297,
312,0.1174200252,312,0.1191069931,312,0.1529131234,312,0.004945924506,312,0.05285732448,312,0.1156074107,
311,0.1159931272,311,0.1181179583,311,0.1546523869,311,0.004729554057,311,0.0516664125,311,0.1144325808,
310,0.1141505912,310,0.1161827445,310,0.157279402,310,0.004566104617,310,0.05026890337,310,0.1126943752,
309,0.1125794649,309,0.1145241261,309,0.1592479348,309,0.004254237749,309,0.04932716861,309,0.1109910682,
308,0.1108752042,308,0.1128263697,308,0.1619418263,308,0.004222007468,308,0.04794559628,308,0.1091654971,
307,0.1090219989,307,0.1108770445,307,0.1642661989,307,0.003868518863,307,0.04668999463,307,0.1074015573,
306,0.1071199551,306,0.1092226133,306,0.1667675972,306,0.003921514377,306,0.04482795298,306,0.1058909222,
305,0.1056321114,305,0.107830517,305,0.1694550067,305,0.003740300424,305,0.04351241514,305,0.1042995751,
304,0.1041428074,304,0.1064231545,304,0.1720721126,304,0.003826758824,304,0.04156398028,304,0.1029048041,
303,0.1027324349,303,0.1049656793,303,0.1751240045,303,0.003576961579,303,0.0397224091,303,0.1012469083,
302,0.1014307886,302,0.1035251692,302,0.1782774478,302,0.003708839184,302,0.03786929324,302,0.1001239344,
301,0.09998752922,301,0.102005437,301,0.1814633608,301,0.003169235308,301,0.03557538614,301,0.0985377878,
300,0.09897946566,300,0.1008997634,300,0.185326606,300,0.003370559309,300,0.03382073715,300,0.09760984778,
299,0.09754852951,299,0.09989264607,299,0.1890773475,299,0.003313718131,299,0.03187068924,299,0.09638486803,
298,0.09668592364,298,0.09879850596,298,0.1933922768,298,0.003320760792,298,0.02990329079,298,0.09558943659,
297,0.09617175162,297,0.09872126579,297,0.198550567,297,0.003642869415,297,0.02872158401,297,0.09507014602,
296,0.09583112597,296,0.09809356928,296,0.2035826296,296,0.003560988698,296,0.02713146992,296,0.09469078481,
295,0.09565331787,295,0.09794982523,295,0.2093405575,295,0.003977599554,295,0.02577327564,295,0.09442106634,
294,0.09560498595,294,0.09772721678,294,0.2156346887,294,0.003842114704,294,0.02443147264,294,0.09446501732,
293,0.09587354213,293,0.09823443741,293,0.222102493,293,0.004490065388,293,0.0232492201,293,0.09480150789,
292,0.09623965621,292,0.09873816371,292,0.2291900814,292,0.004150236025,292,0.02186274901,292,0.09533305466,
291,0.09749227762,291,0.1002009958,291,0.2361093014,291,0.005043465178,291,0.02109564468,291,0.09677992016,
290,0.09908312559,290,0.101654157,290,0.2429879755,290,0.005018455908,290,0.02008162066,290,0.09808315337,
289,0.1010680124,289,0.1037518233,289,0.2492667139,289,0.005184983835,289,0.01883997768,289,0.1000994518,
288,0.1037957743,288,0.1061168611,288,0.2550130785,288,0.005599852186,288,0.01796297356,288,0.1027036756,
287,0.1067891717,287,0.1091747805,287,0.2597629726,287,0.005974856205,287,0.01707925461,287,0.1057665348,
286,0.1101939455,286,0.1128446609,286,0.2636514008,286,0.006345718633,286,0.01611006819,286,0.1092945859,
285,0.1145867407,285,0.1172230467,285,0.267160356,285,0.006899385713,285,0.01519539114,285,0.1138048247,
284,0.11918246,284,0.1218797341,284,0.2694769204,284,0.007580892183,284,0.01442305092,284,0.1183936298,
283,0.1246488765,283,0.1273426563,283,0.2718083262,283,0.008554521948,283,0.01369517203,283,0.1236779541,
282,0.1304377615,282,0.1330716461,282,0.2730506063,282,0.009456229396,282,0.01320970617,282,0.1294137239,
281,0.1369532794,281,0.139337793,281,0.274142921,281,0.0106707653,281,0.01240295544,281,0.1357663721,
280,0.1437947005,280,0.1465783566,280,0.2745553255,280,0.01217871159,280,0.01212887838,280,0.1428122967,
279,0.1515347958,279,0.1542671472,279,0.2741199434,279,0.01436974853,279,0.01164848264,279,0.1507086307,
278,0.1602462977,278,0.1632487178,278,0.2736875713,278,0.01677355729,278,0.01157858409,278,0.1592382491,
277,0.1696754843,277,0.1725383699,277,0.2726321518,277,0.01987592317,277,0.0113592837,277,0.1686326712,
276,0.1802430451,276,0.1829290688,276,0.2712973356,276,0.02330526337,276,0.01150614489,276,0.1788669378,
275,0.191757381,275,0.194133088,275,0.2696689069,275,0.02717294171,275,0.01135553699,275,0.1903060377,
274,0.203801021,274,0.2066745311,274,0.2680391669,274,0.03158449754,274,0.01149803773,274,0.2021589875,
273,0.2166185975,273,0.2191838175,273,0.2663854659,273,0.03612053394,273,0.01140241232,273,0.2149796188,
272,0.2302639335,272,0.233192265,272,0.2648511231,272,0.04152578115,272,0.01165935863,272,0.2286008894,
271,0.2439024448,271,0.2467959225,271,0.2634401619,271,0.04638488591,271,0.0121537149,271,0.2420295477,
270,0.2575781047,270,0.2602459192,270,0.2621984184,270,0.052010037,270,0.01312320028,270,0.2552250028,
269,0.2697209716,269,0.2726148665,269,0.2612730265,269,0.05704286695,269,0.01469346602,269,0.2673027515,
268,0.2809533179,268,0.2833188474,268,0.2608862221,268,0.06253708154,268,0.01711608842,268,0.2779681087,
267,0.2895084321,267,0.2921482623,267,0.2610379159,267,0.06758318096,267,0.02068536915,267,0.2865142524,
266,0.2960025966,266,0.2986710966,266,0.2614964843,266,0.07279859483,266,0.0254148189,266,0.292869091,
265,0.3001588285,265,0.3032354414,265,0.2624612451,265,0.07771094888,265,0.03293046355,265,0.2971926332,
264,0.3028126061,264,0.3056185842,264,0.263969332,264,0.08287404478,264,0.04339917749,264,0.2996568382,
263,0.3036468029,263,0.3070319593,263,0.2657227516,263,0.08722937852,263,0.05849519372,263,0.300701052,
262,0.30420506,262,0.3071384132,262,0.2681604028,262,0.09179463983,262,0.07971823215,262,0.3008740842,
261,0.3037886024,261,0.3072890043,261,0.2708979845,261,0.09603381157,261,0.1072284579,261,0.3007430732,
260,0.3032509685,260,0.3065820038,260,0.2741048038,260,0.1001173481,260,0.1414625794,260,0.3002639711,
259,0.3022654355,259,0.3062338531,259,0.2781191468,259,0.1042441875,259,0.1821765155,259,0.2997843921,
258,0.3013286889,258,0.3050965071,258,0.2824577391,258,0.1081486121,258,0.2265066057,258,0.2986803651,
257,0.3002595901,257,0.3043237627,257,0.287399888,257,0.112003684,257,0.2651913166,257,0.2975867689,
256,0.2987424433,256,0.3028162122,256,0.2928506434,256,0.115355514,256,0.2862030268,256,0.2961229086,
255,0.2976595163,255,0.3020355999,255,0.2988040149,255,0.1177457273,255,0.289222151,255,0.2949266732,
254,0.2970196307,254,0.3014087081,254,0.30569309,254,0.120542258,254,0.2849672735,254,0.294632256,
253,0.2974166274,253,0.3019807339,253,0.3127697706,253,0.1224302277,253,0.2828810215,253,0.2952215672,
252,0.2994273901,252,0.3041931391,252,0.3209649026,252,0.1243967116,252,0.2845464647,252,0.2972745299,
251,0.3026400506,251,0.3075859845,251,0.3299571574,251,0.1254514158,251,0.2888731956,251,0.3002797365,
250,0.3073825836,250,0.3125031292,250,0.3401971459,250,0.1261411011,250,0.2948224247,250,0.3049219549,
249,0.3130259514,249,0.3178810477,249,0.3513950408,249,0.1263946891,249,0.2991903424,249,0.3102064729,
248,0.3190164864,248,0.324147284,248,0.3637447059,248,0.1255612075,248,0.2973988652,248,0.3163612783,
247,0.3255852461,247,0.3305882812,247,0.376812309,247,0.1245966256,247,0.288510114,247,0.3227812946,
246,0.3327452838,246,0.3379021883,246,0.3912337422,246,0.1229081973,246,0.2744921148,246,0.3300851285,
245,0.3402810097,245,0.3452947438,245,0.406154573,245,0.1211211979,245,0.2584982216,245,0.3372829258,
244,0.3484345675,244,0.3536342382,244,0.4217686951,244,0.1186104566,244,0.2435881495,244,0.3451478183,
243,0.3568409383,243,0.3618504703,243,0.4384289384,243,0.1160737723,243,0.2303406596,243,0.3535977602,
242,0.3654409945,242,0.3706677556,242,0.4547410905,242,0.1127348393,242,0.2195749581,242,0.3619315326,
241,0.3742388487,241,0.3789621294,241,0.4718376696,241,0.1097093895,241,0.210505113,241,0.3705964684,
240,0.3824242949,240,0.3875519931,240,0.4887255132,240,0.1062847301,240,0.202444151,240,0.3788623512,
239,0.3904299438,239,0.3952792585,239,0.5056058764,239,0.1031074673,239,0.1945485324,239,0.3867733777,
238,0.3979626596,238,0.4027844667,238,0.5227614641,238,0.1001110226,238,0.186712265,238,0.3942641616,
237,0.4058325887,237,0.4104083478,237,0.5401432514,237,0.09761273116,237,0.1798138022,237,0.4019113481,
236,0.4139691591,236,0.4191283882,236,0.5582049489,236,0.09600646049,236,0.1751450449,236,0.4102631211,
235,0.4239375889,235,0.4285962284,235,0.5767034292,235,0.09542107582,235,0.1734097749,235,0.4201672077,
234,0.4350906909,234,0.4399035573,234,0.5962677598,234,0.09585685283,234,0.1747416258,234,0.4315285385,
233,0.4483278394,233,0.4530746937,233,0.6161270738,233,0.09812436253,233,0.1795829535,233,0.4448461831,
232,0.4634504616,232,0.4680560529,232,0.63719064,232,0.1016562805,232,0.1873993874,232,0.460038662,
231,0.4794861376,231,0.4843634069,231,0.658336401,231,0.1057776958,231,0.1966326982,231,0.4759807289,
230,0.4958459139,230,0.5008112192,230,0.6793377399,230,0.1103850901,230,0.2061520368,230,0.4923145175,
229,0.5114856958,229,0.5163784623,229,0.6995022297,229,0.1145542189,229,0.2146399766,229,0.5081057549,
228,0.5264817476,228,0.5315806866,228,0.7186465859,228,0.1186109707,228,0.2222210914,228,0.523070097,
227,0.5407236218,227,0.5455300808,227,0.7375466228,227,0.122886382,227,0.2291798145,227,0.5374424458,
226,0.5544998646,226,0.5592630506,226,0.7563362122,226,0.1278151572,226,0.2358963788,226,0.5512490273,
225,0.5674279928,225,0.5721501112,225,0.7756887674,225,0.1323862523,225,0.2419118732,225,0.5642416477,
224,0.5792250633,224,0.5840924978,224,0.7943801284,224,0.1372272819,224,0.2473839968,224,0.5758788586,
223,0.5886967182,223,0.5936868787,223,0.8131394386,223,0.1404507011,223,0.2512911558,223,0.58567065,
222,0.5971977711,222,0.6021705866,222,0.8323845267,222,0.1438715905,222,0.2542800307,222,0.5939691067,
221,0.6042481661,221,0.6091257334,221,0.8525990844,221,0.1471389234,221,0.2571564615,221,0.6011753082,
220,0.6095656753,220,0.6143540144,220,0.8726865649,220,0.150965184,220,0.2595672309,220,0.6068850756,
219,0.6134417057,219,0.6181865335,219,0.895293653,219,0.1554069668,219,0.261575073,219,0.6112094522,
218,0.6164242625,218,0.6215233803,218,0.920080781,218,0.1624364108,218,0.2633194625,218,0.6146544218,
217,0.6187148094,217,0.623401165,217,0.946936667,217,0.1722915322,217,0.2648423612,217,0.6171108484,
216,0.6203083992,216,0.6251288056,216,0.9767791033,216,0.1863233745,216,0.266153872,216,0.6194131374,
215,0.6215155721,215,0.6264404058,215,1.009847879,215,0.205336377,215,0.2677455544,215,0.6209619045,
214,0.6227127314,214,0.6275185347,214,1.04654479,214,0.2275280654,214,0.2710843384,214,0.6229072809,
213,0.6224737763,213,0.6272643209,213,1.085788608,213,0.2503502071,213,0.2769649327,213,0.6227024794,
212,0.6197050214,212,0.6243781447,212,1.127295375,212,0.2690356672,212,0.2868786454,212,0.620431602,
211,0.6135149002,211,0.6187515259,211,1.169851661,211,0.2806999087,211,0.301112324,211,0.6148625016,
210,0.6038929224,210,0.6087428927,210,1.213229537,210,0.2837671041,210,0.3209244311,210,0.6058523059,
209,0.5907441378,209,0.5960789919,209,1.255102277,209,0.280036658,209,0.3456504345,209,0.5933821201,
208,0.5747814178,208,0.5799659491,208,1.29366219,208,0.2710433602,208,0.3753612638,208,0.5780785084,
207,0.5561907887,207,0.5619446635,207,1.328782439,207,0.2574394941,207,0.4086252153,207,0.5602955222,
206,0.5362199545,206,0.5417823195,206,1.35756588,206,0.2406916171,206,0.4450376034,206,0.5409322977,
205,0.5144132972,205,0.5204185843,205,1.379684448,205,0.2206777185,205,0.4789236784,205,0.5197580457,
204,0.4918187857,204,0.4982889593,204,1.393416762,204,0.1989195049,204,0.5067674518,204,0.498157382,
203,0.4687844217,203,0.4756367207,203,1.400920033,203,0.1763530374,203,0.5247722268,203,0.4755169153,
202,0.4454727769,202,0.4523753822,202,1.397972584,202,0.1533893943,202,0.5332013369,202,0.4525743723,
201,0.4220092595,201,0.4294408262,201,1.385737419,201,0.1310555339,201,0.5363784432,201,0.4308551252,
200,0.399101913,200,0.4072863162,200,1.365112305,200,0.1088493839,200,0.53628546,200,0.4085054696,

