RB,,lig,,jug,,pn,,
Wavelength (nm),Abs,Wavelength (nm),Abs,Wavelength (nm),Abs,Wavelength (nm),Abs,
800,0.00757528143,800,0.001706333715,800,0.003286486957,800,0.005597570911,
799,0.007594063412,799,0.001793609816,799,0.003448490053,799,0.005626861472,
798,0.007577494252,798,0.001802161685,798,0.003503991989,798,0.005671365187,
797,0.007613319904,797,0.001713142614,797,0.003426416544,797,0.005630244501,
796,0.007601860911,796,0.001641265,796,0.003458535764,796,0.005578167271,
795,0.007639111485,795,0.001921644667,795,0.00346083194,795,0.005700503476,
794,0.007576493081,794,0.001770736533,794,0.003472600132,794,0.005678787362,
793,0.007701158989,793,0.001802395564,793,0.00346685946,793,0.005791130476,
792,0.007561426144,792,0.001783602638,792,0.003447341966,792,0.005696910433,
791,0.007631207816,791,0.001736246864,791,0.003603923833,791,0.005671968218,
790,0.007574649062,790,0.001817212207,790,0.003540527541,790,0.005687914323,
789,0.007583526429,789,0.001691027195,789,0.003306388389,789,0.005727912765,
788,0.007517571095,788,0.001839802018,788,0.003438496962,788,0.005683036055,
787,0.007571540773,787,0.001824074774,787,0.003436644329,787,0.00583344698,
786,0.00767957978,786,0.001856543706,786,0.003490918316,786,0.005791287869,
785,0.007572778966,785,0.001880695461,785,0.003458431456,785,0.005763219204,
784,0.007642905228,784,0.001846379018,784,0.003573699156,784,0.00581259001,
783,0.007567721419,783,0.001821501297,783,0.003485855879,783,0.005722614005,
782,0.007613293827,782,0.00176098966,782,0.003501747735,782,0.00580542814,
781,0.007491866127,781,0.001755505567,781,0.003420598339,781,0.005772872362,
780,0.007603098638,780,0.001806320623,780,0.003516074503,780,0.005802306347,
779,0.007463607937,779,0.00180827023,779,0.003429599572,779,0.00572395185,
778,0.007594300434,778,0.001841439749,778,0.003483324777,778,0.005784913432,
777,0.00758036552,777,0.001877679606,777,0.003522990039,777,0.005735361949,
776,0.007555446588,776,0.001935321256,776,0.003479775973,776,0.005776413716,
775,0.007607287262,775,0.001875053858,775,0.003461640794,775,0.005818414036,
774,0.007593062241,774,0.001923386706,774,0.003472574055,774,0.005727886222,
773,0.007548756432,773,0.001810869551,773,0.003374916036,773,0.005689042155,
772,0.00745776156,772,0.001819837606,772,0.003403691808,772,0.005796429701,
771,0.007573911455,771,0.002008521929,771,0.003463728353,771,0.005876686424,
770,0.007521469146,770,0.001862029079,770,0.003466702998,770,0.005827491637,
769,0.007441013586,769,0.001802941435,769,0.003441732377,769,0.005633994471,
768,0.007626623847,768,0.001876405673,768,0.003627050668,768,0.005882904865,
767,0.007584158331,767,0.001907812548,767,0.003396256361,767,0.005718155298,
766,0.007645197213,766,0.001958255423,766,0.003604628611,766,0.005893243011,
765,0.007491444703,765,0.001961141592,765,0.003439984052,765,0.005908803549,
764,0.007469586097,764,0.001944473945,764,0.003561928403,764,0.005821457598,
763,0.007602361031,763,0.002042513108,763,0.003502165433,763,0.005867922679,
762,0.007533821743,762,0.001926428871,762,0.003514247714,762,0.005862045567,
761,0.00749634346,761,0.001964678057,761,0.00353937922,761,0.00591142755,
760,0.007651678286,760,0.002069848357,760,0.003573594848,760,0.00596456835,
759,0.007576387841,759,0.002002800582,759,0.003587323474,759,0.005960369483,
758,0.007589005399,758,0.002033280209,758,0.003501643427,758,0.005810910836,
757,0.007547175977,757,0.002021967201,757,0.003506340785,757,0.005849871319,
756,0.007568274625,756,0.002148326486,756,0.00362947816,756,0.00602411991,
755,0.00758589711,755,0.002048182767,755,0.003602148965,755,0.005888572428,
754,0.007574649062,754,0.002086364664,754,0.003386760131,754,0.005787379108,
753,0.007482700981,753,0.002058248268,753,0.003585183294,753,0.006004251074,
752,0.00754944142,752,0.002058456186,752,0.00352309458,752,0.005908095278,
751,0.007478750776,751,0.002009093994,751,0.003456343897,751,0.005764714442,
750,0.007695204113,750,0.002172936685,750,0.003617914626,750,0.005940450821,
749,0.007522522472,749,0.002083815634,749,0.003612146014,749,0.006032939069,
748,0.007574965246,748,0.00210649753,748,0.003640102223,748,0.006074019242,
747,0.007497870829,747,0.002011278644,747,0.00354911387,747,0.005857112817,
746,0.007530187257,746,0.002200254239,746,0.00362752052,746,0.005934677552,
745,0.007467795163,745,0.002031927928,745,0.00353987515,745,0.005857821088,
744,0.007498898078,744,0.002150563756,744,0.003587767249,744,0.005862124264,
743,0.00754770264,743,0.002215786837,743,0.003607421415,743,0.00599028822,
742,0.007579232566,742,0.002204729244,742,0.003737088991,742,0.006003463641,
741,0.007507194299,741,0.002195311012,741,0.003635064233,741,0.005922711454,
740,0.007458499167,740,0.002168748295,740,0.003650804982,740,0.005953834858,
739,0.007548097987,739,0.002206784673,739,0.003682862502,739,0.005959214643,
738,0.007582235616,738,0.002230981831,738,0.003686360782,738,0.005995799787,
737,0.007473062258,737,0.002228249796,737,0.003657305147,737,0.005917410366,
736,0.007410388906,736,0.002187011531,736,0.003618619405,736,0.005861572921,
735,0.007438617293,735,0.00221188413,735,0.003699649358,735,0.005846959073,
734,0.007528211921,734,0.002191980835,734,0.003712520469,734,0.005849057809,
733,0.007473983802,733,0.002145308768,733,0.00367009663,733,0.00595184043,
732,0.00745628681,732,0.002061707433,732,0.003562110942,732,0.005811986513,
731,0.007397907786,731,0.002048546914,731,0.003641303163,731,0.005864669103,
730,0.007455417886,730,0.002159850905,730,0.003664066317,730,0.005832030438,
729,0.007364706136,729,0.002082567196,729,0.003644539975,729,0.005807972979,
728,0.007440434303,728,0.002158185933,728,0.003657409456,728,0.005825445522,
727,0.007330717053,727,0.001998769818,727,0.00355623872,727,0.005734181497,
726,0.007413364481,726,0.002035282785,726,0.003572028829,726,0.005772138014,
725,0.007499767002,725,0.002140262164,725,0.003666833509,725,0.005865823478,
724,0.007345328573,724,0.002036505146,724,0.003589072265,724,0.005751388613,
723,0.007314026356,723,0.002022799337,723,0.003634333378,723,0.005788716953,
722,0.00742874248,722,0.00205104379,722,0.003666337347,722,0.005774367601,
721,0.007433166262,721,0.002106211381,721,0.003637779038,721,0.005790763535,
720,0.007400172297,720,0.002027896699,720,0.003633028129,720,0.005770275369,
719,0.007322213612,719,0.002024983987,719,0.003605490085,719,0.005760726985,
718,0.007433587685,718,0.002085974673,718,0.003702964867,718,0.005827832967,
717,0.007450151257,717,0.002063111868,717,0.00362326554,717,0.005748712923,
716,0.007356544491,716,0.002074035816,716,0.003641459625,716,0.005762956571,
715,0.007294440642,715,0.002118957229,715,0.003646027995,715,0.005712306127,
714,0.007297757547,714,0.002036453225,714,0.003637152491,714,0.005794357508,
713,0.007330453955,713,0.001977524022,713,0.003621803829,713,0.005712988321,
712,0.007444120944,712,0.002042382956,712,0.003664849559,712,0.005749290343,
711,0.00744046038,711,0.00209109881,711,0.003748551244,711,0.005802673288,
710,0.007365153637,710,0.002070706571,710,0.003644461744,710,0.005811855663,
709,0.007371051703,709,0.002035855083,709,0.003676205408,709,0.005755638238,
708,0.007352516055,708,0.002037649509,708,0.003705523442,708,0.005831820425,
707,0.00733719347,707,0.002110581379,707,0.003682262031,707,0.005828882102,
706,0.007335403468,706,0.002088965848,706,0.003693670733,706,0.005815423559,
705,0.007331191096,705,0.001941301743,705,0.003646288998,705,0.005750444252,
704,0.007361836266,704,0.002087613335,704,0.00370184239,704,0.005790920928,
703,0.007330322172,703,0.002067299327,703,0.003659367329,703,0.005796823185,
702,0.007354991045,702,0.002067845548,702,0.003690564074,702,0.005849871319,
701,0.007404385135,701,0.002112558344,701,0.003748002928,701,0.005876030307,
700,0.007345539518,700,0.002033488359,700,0.003689232515,700,0.005828357302,
699,0.00739590684,699,0.002083763713,699,0.003751292825,699,0.005899567157,
698,0.007345618214,698,0.002051668009,698,0.003690929385,698,0.00583780231,
697,0.007303443737,697,0.002036401303,697,0.003728577169,697,0.005846381653,
696,0.007355517708,696,0.002136412077,696,0.00378649123,696,0.005912424996,
695,0.007341905963,695,0.002082697349,695,0.003768186551,695,0.005953283515,
694,0.007316237781,694,0.002028026851,694,0.00367119303,694,0.005857112817,
693,0.00731186755,693,0.002068339847,693,0.003746566828,693,0.00589843886,
692,0.007396538742,692,0.002144762548,692,0.003811142175,692,0.00592874689,
691,0.007336640731,691,0.00207003043,691,0.003813832067,691,0.005963492207,
690,0.007373605389,690,0.002177333459,690,0.003834854579,690,0.005972520448,
689,0.007410125341,689,0.002142030979,689,0.003877268173,689,0.005972861312,
688,0.007396538742,688,0.002133758739,688,0.003844230203,688,0.005963387433,
687,0.007361256983,687,0.002081448678,687,0.003832608694,687,0.005975774489,
686,0.007388850208,686,0.002107616048,686,0.003819498932,686,0.005943626165,
685,0.007412179373,685,0.002091020579,685,0.003849792993,685,0.005980813876,
684,0.007435457315,684,0.002176475013,684,0.003878861433,684,0.006050971802,
683,0.007455971092,683,0.002211207757,683,0.003907122184,683,0.006090032402,
682,0.007398908492,682,0.00215527229,682,0.003889700631,682,0.006053176709,
681,0.007420684677,681,0.002135943854,681,0.003858176293,681,0.006045617163,
680,0.007484702393,680,0.002184852026,680,0.003930239007,680,0.006069084164,
679,0.007451388985,679,0.002207487123,679,0.003922402859,679,0.006086620037,
678,0.007500320207,678,0.002197548281,678,0.003967515659,678,0.006101084407,
677,0.007453469094,677,0.002166302642,677,0.003938336857,677,0.006070212927,
676,0.007448360324,676,0.002168722218,676,0.00390012213,676,0.006107463967,
675,0.007556052413,675,0.002246255521,675,0.003981701098,675,0.006129385438,
674,0.007468084805,674,0.002196403686,674,0.003981779329,674,0.006140858401,
673,0.007571119349,673,0.00228817598,673,0.004083101638,673,0.006225222722,
672,0.007506351452,672,0.00223220489,672,0.004087282345,672,0.006216740701,
671,0.007529370487,671,0.002236524131,671,0.003993143793,671,0.006146161817,
670,0.0074942098,670,0.002231684513,670,0.003977912944,670,0.006208968349,
669,0.007566983812,669,0.002227209043,669,0.004035416059,669,0.006216924638,
668,0.00758976955,668,0.002231580438,668,0.004040380474,668,0.006240269635,
667,0.007540327497,667,0.002295046113,667,0.004058278166,667,0.006223856937,
666,0.007596855517,666,0.002300641034,666,0.004079887643,666,0.006250642706,
665,0.007589374203,665,0.002280005021,665,0.004076621495,665,0.00626001833,
664,0.007573753595,664,0.002265849151,664,0.004093240481,664,0.006297731772,
663,0.007588452194,663,0.002317270497,663,0.004085296765,663,0.006319583859,
662,0.007594458293,662,0.002340849256,662,0.004093135707,662,0.006345403381,
661,0.007646540646,661,0.002337595914,661,0.004116524011,661,0.006333741359,
660,0.007626465987,660,0.002346991329,660,0.00414960878,660,0.006335001905,
659,0.007584501058,659,0.002292469842,659,0.004126062151,659,0.006300646812,
658,0.007619827054,658,0.002307225019,658,0.004153398331,658,0.006386986002,
657,0.007647225633,657,0.002388322959,657,0.004149216693,657,0.00638262555,
656,0.007652706001,656,0.002333275741,656,0.004161212593,656,0.006374534685,
655,0.007643511053,655,0.002377807628,655,0.004173888359,655,0.006430464331,
654,0.00766137382,654,0.002406413434,654,0.004183584824,654,0.006431541406,
653,0.007734571118,653,0.002406673739,653,0.004247205798,653,0.006452244241,
652,0.007672571111,652,0.002365079941,652,0.004204703961,652,0.006456080358,
651,0.007674863562,651,0.002411567373,651,0.004195477348,651,0.006449643523,
650,0.007660794072,650,0.002437363844,650,0.004219654948,650,0.006507947575,
649,0.007707456592,649,0.002459569369,649,0.004265530501,649,0.006505031139,
648,0.007687984966,648,0.002426326508,648,0.004234502092,648,0.006525501143,
647,0.007641324308,647,0.002435749862,647,0.004241925664,647,0.006497174501,
646,0.007654049434,646,0.002455456182,646,0.004244304262,646,0.006473972928,
645,0.007650492713,645,0.002449937398,645,0.004223575816,645,0.006509419065,
644,0.00767636532,644,0.002516533248,644,0.004305319861,644,0.006564262323,
643,0.007716652472,643,0.002457018243,643,0.004300927743,643,0.006581187248,
642,0.007750250399,642,0.002519657835,642,0.004309659824,642,0.006620715838,
641,0.007685797755,641,0.002484171418,641,0.004261975642,641,0.006595247891,
640,0.007636476774,640,0.002466728678,640,0.004249271005,640,0.006562449038,
639,0.007689776365,639,0.002523016417,639,0.004311411642,639,0.006669474766,
638,0.007693991996,638,0.002556422958,638,0.004340458661,638,0.006622135174,
637,0.00772893196,637,0.002557855099,637,0.004393302836,637,0.006689295638,
636,0.007688142825,636,0.002578296,636,0.004381640349,636,0.006706303917,
635,0.007704953197,635,0.002564390888,635,0.004405645654,635,0.006652573124,
634,0.007713912055,634,0.002583139576,634,0.004355257377,634,0.006678622682,
633,0.007709485479,633,0.002589571523,633,0.004353505559,633,0.006730937399,
632,0.007669304032,632,0.002601237968,632,0.004359571729,632,0.006700125989,
631,0.007662427612,631,0.002592930803,631,0.004350158852,631,0.006713480689,
630,0.007692016196,630,0.002627670998,630,0.004394662566,630,0.006745633669,
629,0.007715835702,629,0.002654808573,629,0.004370527342,629,0.006801400799,
628,0.00765821198,628,0.002648297464,628,0.004406429827,628,0.006807580125,
627,0.007650281768,627,0.002674055984,627,0.004369481467,627,0.00676858658,
626,0.007690145168,626,0.002694789087,626,0.004413411953,626,0.00679606339,
625,0.007700447459,625,0.002720550401,625,0.004414379597,625,0.006813312415,
624,0.007673440967,624,0.002727817977,624,0.004422355443,624,0.006870035082,
623,0.007660451811,623,0.002716695191,623,0.004426461179,623,0.006880055182,
622,0.007709643804,622,0.002700519515,622,0.004472463392,622,0.006872585975,
621,0.007708457764,621,0.002756655216,621,0.004456509836,621,0.006889181212,
620,0.007752305828,620,0.002756941831,620,0.004466526676,620,0.006921662483,
619,0.007780714426,619,0.002806311008,619,0.004471652675,619,0.006946360692,
618,0.007750329096,618,0.002770983614,618,0.004459988326,618,0.006907249335,
617,0.007818955928,617,0.002830776153,617,0.004482663702,617,0.006987001281,
616,0.007807938848,616,0.002822099952,616,0.00450008316,616,0.006968876813,
615,0.007856936194,615,0.002831010614,615,0.004482480697,615,0.006971323397,
614,0.007961723953,614,0.002903111512,614,0.004558806308,614,0.007041536737,
613,0.007950888947,613,0.002924533095,613,0.004533955827,613,0.007014965173,
612,0.007999375463,612,0.002943688305,612,0.00456704665,612,0.007080528419,
611,0.00803779345,611,0.002949057147,611,0.004566026386,611,0.007040642202,
610,0.008089322597,610,0.002933081239,610,0.004609426949,610,0.007104919758,
609,0.008185013197,609,0.003005902749,609,0.004623057786,609,0.007124602329,
608,0.008148269728,608,0.002957892371,608,0.004556687549,608,0.007136285771,
607,0.008305790834,607,0.003068856196,607,0.004649090581,607,0.007163759787,
606,0.00830083061,606,0.003051050939,606,0.004590329248,606,0.007155838422,
605,0.008392238989,605,0.003054883098,605,0.004635930061,605,0.007166917436,
604,0.008444470353,604,0.003055091714,604,0.00459242193,604,0.007170944009,
603,0.008494675159,603,0.003078293288,603,0.004650712945,603,0.007165285759,
602,0.008593887091,602,0.003100297181,602,0.004633340053,602,0.007136812434,
601,0.008706009947,601,0.003122275928,601,0.004665941,601,0.007207262795,
600,0.008797187358,600,0.003085202072,600,0.004642209504,600,0.007177075837,
599,0.008899454959,599,0.003082829528,599,0.004596843384,599,0.007200735621,
598,0.009039433673,598,0.003120815847,598,0.004576254636,598,0.007206025999,
597,0.00927554816,597,0.003175441409,597,0.004635171499,597,0.007236083504,
596,0.009505387396,596,0.003159352811,596,0.004651733208,596,0.00719302427,
595,0.009852188639,595,0.003217138816,595,0.004653381649,595,0.0072758561,
594,0.01013415866,594,0.003135286272,594,0.004651471972,594,0.007229871582,
593,0.01055293623,593,0.003224127926,593,0.004671069793,593,0.007272986695,
592,0.01110471878,592,0.003219381673,592,0.00475020241,592,0.007249086164,
591,0.01162561681,591,0.003283018013,591,0.004703359678,591,0.007281831466,
590,0.01236492023,590,0.00325904903,590,0.004679442849,590,0.007259430364,
589,0.0132944677,589,0.003300441429,589,0.004775797948,589,0.007292913739,
588,0.01431211829,588,0.003382012015,588,0.004811577033,588,0.007308261003,
587,0.01557711326,587,0.003345411504,587,0.004827412777,587,0.007348540705,
586,0.01710198075,586,0.003368654987,586,0.004802651703,586,0.007379871793,
585,0.01888396218,585,0.003439436201,585,0.004833014216,585,0.007405780721,
584,0.02101328596,584,0.003479697742,584,0.004872201011,584,0.007453574799,
583,0.02356055193,583,0.003537969897,583,0.004917019978,583,0.0074253981,
582,0.02661259472,582,0.003514665412,582,0.004922361113,582,0.007399856579,
581,0.03027379699,581,0.003584609134,581,0.004980984144,581,0.007479277439,
580,0.03465126455,580,0.003628669074,580,0.005034325644,580,0.007500188425,
579,0.03956580535,579,0.003675709479,579,0.004961424973,579,0.007451415062,
578,0.04568600655,578,0.003754608799,578,0.005086887628,578,0.007501768414,
577,0.05284978449,577,0.003835507436,577,0.005150038749,577,0.007576387841,
576,0.06136498228,576,0.003905946855,576,0.005235756282,576,0.007574754767,
575,0.07119715959,575,0.003910962027,575,0.005237485282,575,0.00756029319,
574,0.08291398734,574,0.004014854319,574,0.00534599321,574,0.007613610011,
573,0.09653579444,573,0.004102020524,573,0.005412405822,573,0.007634896319,
572,0.1124487221,572,0.004187557846,572,0.005441605579,572,0.007631524,
571,0.1308570951,571,0.004294391721,571,0.005525860004,571,0.007708378602,
570,0.1521779001,570,0.004411555361,570,0.005581523292,570,0.007697470021,
569,0.176263988,569,0.004522813018,569,0.00568408519,569,0.007756126579,
568,0.2044799626,568,0.004662408959,568,0.005762956571,568,0.007789463736,
567,0.2360212654,567,0.00482751755,567,0.00585632585,567,0.007843968458,
566,0.2711766362,566,0.004998423625,566,0.005907097831,566,0.007839065976,
565,0.3107451499,565,0.00521387998,565,0.006033910438,565,0.007948094048,
564,0.3536754847,564,0.005409470294,564,0.006106361281,564,0.007923522964,
563,0.4002797008,563,0.005652744789,563,0.006216819398,563,0.007967366837,
562,0.4498921633,562,0.005773816723,562,0.006257812027,562,0.007883401588,
561,0.5026381612,561,0.006140254438,561,0.006407109089,561,0.008030726574,
560,0.5574420691,560,0.006377004087,560,0.006518537179,560,0.007996474393,
559,0.6132026911,559,0.006645922549,559,0.006595957559,559,0.008085894398,
558,0.6682652831,558,0.00685336208,558,0.006685378496,558,0.008107177913,
557,0.7225385904,557,0.00704624597,557,0.006710326299,557,0.008055356331,
556,0.7739823461,556,0.007335061207,556,0.006888497155,556,0.008144630119,
555,0.8214175701,555,0.007497475948,555,0.006936286576,555,0.008138325997,
554,0.8633785844,554,0.007691357285,554,0.007004757877,554,0.008191053756,
553,0.8985614777,553,0.007886775769,553,0.00710149901,553,0.008153069764,
552,0.9265545607,552,0.00800280273,552,0.007071319502,552,0.008214136586,
551,0.9463813901,551,0.008080963045,551,0.007128760219,551,0.008243472315,
550,0.9579175711,550,0.008229726925,550,0.007169417571,550,0.008276635781,
549,0.9610919356,549,0.008252257481,549,0.007236688863,549,0.008272044361,
548,0.955984354,548,0.008322281763,548,0.007204947062,548,0.008279775269,
547,0.9434210062,547,0.008249249309,547,0.007143970113,547,0.008263259195,
546,0.9241707921,546,0.008258694783,546,0.007177707739,546,0.0083614951,
545,0.8993750811,545,0.008157132193,545,0.00707418751,545,0.008320197463,
544,0.8698326349,544,0.008032255806,544,0.007007388864,544,0.008276081644,
543,0.8369700909,543,0.007994813845,543,0.007081001997,543,0.008378436789,
542,0.8013626337,542,0.007902275771,542,0.006962090265,542,0.00837893784,
541,0.7641510367,541,0.007864923216,541,0.007021042518,541,0.008419845253,
540,0.72611022,540,0.007759631611,540,0.006938995793,540,0.008381656371,
539,0.6875342131,539,0.007656315342,539,0.006930473726,539,0.008426628076,
538,0.6498871446,538,0.007544410415,538,0.006842501462,538,0.008381498046,
537,0.6136574149,537,0.007447043899,537,0.00683182478,537,0.00840752013,
536,0.5787747502,536,0.007347935345,536,0.00674069114,536,0.00842720829,
535,0.5457128882,535,0.007218132727,535,0.006721945945,535,0.008448086679,
534,0.514729321,534,0.007198920008,534,0.006735432893,534,0.00846893806,
533,0.4858089387,533,0.007144628093,533,0.006772793364,533,0.008485884406,
532,0.4595642984,532,0.007095920853,532,0.006747000851,532,0.008551327512,
531,0.4351405203,531,0.00708526466,531,0.006775028072,531,0.00851935707,
530,0.4132554829,530,0.007009151392,530,0.006749051623,530,0.00851967372,
529,0.3938227296,529,0.007036695722,529,0.006777683739,529,0.008549848571,
528,0.3766062856,528,0.006975689903,528,0.006822752766,528,0.008549478836,
527,0.3617085814,527,0.006947886199,527,0.006800480653,527,0.008550667204,
526,0.3489184976,526,0.006933787838,526,0.006849864498,526,0.008537598886,
525,0.3384068012,525,0.007034564856,525,0.006944493391,525,0.008644663729,
524,0.3298112452,524,0.007046351209,524,0.006949254312,524,0.00860159751,
523,0.3231328726,523,0.007125786506,523,0.007097999565,523,0.008658131585,
522,0.3182233572,522,0.00711594522,522,0.007109366823,522,0.008694257587,
521,0.3149275482,521,0.007186602801,521,0.007184550166,521,0.008703712374,
520,0.3129300475,520,0.007208631374,520,0.007229240146,520,0.008676325902,
519,0.3120951653,519,0.00723792566,519,0.007253244985,519,0.00867064856,
518,0.3120053709,518,0.007286253851,518,0.007408387493,518,0.008719030768,
517,0.3125723004,517,0.007372736465,517,0.007436458021,517,0.008737571537,
516,0.313277036,516,0.007424739655,516,0.007519362029,516,0.008770481683,
515,0.3139294386,515,0.007500715088,515,0.007620459422,515,0.008755267598,
514,0.3141881227,514,0.00758162979,514,0.007755731698,514,0.008761581033,
513,0.3137743175,513,0.007650229149,513,0.00780443335,513,0.008846006356,
512,0.3123673499,512,0.007738365792,512,0.007937311195,512,0.008892347105,
511,0.3099192083,511,0.007771068718,511,0.008074633777,511,0.008834726177,
510,0.306035161,510,0.007792837452,510,0.008095599711,510,0.008870100603,
509,0.3009204566,509,0.007864316925,509,0.008242416196,509,0.008881646208,
508,0.2944087684,508,0.00794930663,508,0.008498106152,508,0.008956661448,
507,0.286539495,507,0.007946775295,507,0.008474771865,507,0.008950954303,
506,0.2774879336,506,0.007967260666,506,0.008648096584,506,0.008879004046,
505,0.2674232721,505,0.008005755953,505,0.008745257743,505,0.008909573779,
504,0.2566587925,504,0.008076268248,504,0.008915070444,504,0.009010572918,
503,0.2452721894,503,0.008061737753,503,0.009054869413,503,0.009015911259,
502,0.2334534973,502,0.008107362315,502,0.009262828156,502,0.008984250948,
501,0.2215999067,501,0.008099318482,501,0.009443557821,501,0.008978859521,
500,0.2097666264,500,0.008166311309,500,0.009604486637,500,0.009002326988,
499,0.1981760114,499,0.008193902671,499,0.009803866036,499,0.009047336876,
498,0.1870252937,498,0.008262598887,498,0.01006627921,498,0.009108977392,
497,0.1761946529,497,0.008231943473,497,0.01027525216,497,0.009069512598,
496,0.1659427434,496,0.008294788189,496,0.01042344514,496,0.00909385737,
495,0.1563598663,495,0.008340489119,495,0.01073361933,495,0.009177502245,
494,0.1474254876,494,0.008464055136,494,0.0110026747,494,0.009197966196,
493,0.1390804946,493,0.008466324769,493,0.01124689914,493,0.009205606766,
492,0.1313993037,492,0.00850705523,492,0.01145168394,492,0.009184084833,
491,0.1244234964,491,0.008537123911,491,0.01176456269,491,0.009257882833,
490,0.1181447282,490,0.008648017421,490,0.01205299422,490,0.009225914255,
489,0.1123477221,489,0.008676853962,489,0.01228918135,489,0.009283375926,
488,0.1072432697,488,0.008769848384,488,0.01262944564,488,0.009350657463,
487,0.1025383696,487,0.008766308427,487,0.01289157197,487,0.009308737703,
486,0.09842772782,486,0.008852927946,486,0.01319017261,486,0.009299481288,
485,0.09473396093,485,0.008955921978,485,0.01356439386,485,0.009409008548,
484,0.09138835222,484,0.009064384736,484,0.01386308298,484,0.009420701303,
483,0.08835730702,483,0.009112494066,483,0.01416366268,483,0.009411495179,
482,0.08559153229,482,0.009136893786,482,0.01438714098,482,0.009450012818,
481,0.08312367648,481,0.009301702492,481,0.01480580866,481,0.009531555697,
480,0.08078370988,480,0.009312571958,480,0.0150529854,480,0.009483242407,
479,0.07859890163,479,0.009388032369,479,0.01544324588,479,0.009619254619,
478,0.07645731419,478,0.009493454359,478,0.01576250419,478,0.009578552097,
477,0.07438340783,477,0.009598215111,477,0.01610789262,477,0.009691273794,
476,0.07228621095,476,0.009672956541,476,0.01648119465,476,0.009729101323,
475,0.0701527819,475,0.009786523879,475,0.01683256403,475,0.009798596613,
474,0.06806233525,474,0.00987109635,474,0.01723711379,474,0.009913785383,
473,0.06585198641,473,0.009944904596,473,0.0175637044,473,0.009955976158,
472,0.06372932345,472,0.01007904857,472,0.01802300476,472,0.01009314321,
471,0.06153752282,471,0.01015662961,471,0.01840905845,471,0.01024347357,
470,0.05929396302,470,0.01021946128,470,0.01879618503,470,0.01038250793,
469,0.05716919899,469,0.01032251492,469,0.01922708191,469,0.01049273368,
468,0.05492312461,468,0.01043460798,468,0.01968140155,468,0.01075906586,
467,0.05292776227,467,0.01051442698,467,0.02005811594,467,0.01100493129,
466,0.05088107288,466,0.01067686733,466,0.02055187151,466,0.01125784405,
465,0.0490295589,465,0.01077026408,465,0.02100456506,465,0.01156720612,
464,0.04722385481,464,0.01090872381,464,0.02145536616,464,0.01194245182,
463,0.04547503591,463,0.01091886405,463,0.02186683193,463,0.01223012246,
462,0.04396340251,462,0.01111103967,462,0.02235569991,462,0.01276252884,
461,0.04253020883,461,0.01116994675,461,0.02270552889,461,0.01332631055,
460,0.04125037789,460,0.01131305099,460,0.02324430458,460,0.01390969474,
459,0.04004521295,459,0.01142558549,459,0.02367050946,459,0.01458077691,
458,0.03901450709,458,0.01161583234,458,0.02409880236,458,0.01532030664,
457,0.03805682063,457,0.01172376517,457,0.02448095754,457,0.0161689315,
456,0.03715817258,456,0.01183919888,456,0.02487161942,456,0.01707142033,
455,0.03647687286,455,0.01203157008,455,0.0251976382,455,0.01807948388,
454,0.03581021726,454,0.01212576404,454,0.02563241124,454,0.01917829923,
453,0.03519494087,453,0.0121885892,453,0.02593526058,453,0.02032617666,
452,0.03470686451,452,0.012439874,452,0.02629409172,452,0.02165068313,
451,0.03424311057,451,0.01252952032,451,0.02661611699,451,0.02295446023,
450,0.03381270543,450,0.01269730181,450,0.02693554573,450,0.02445118874,
449,0.03351765126,449,0.01283392496,449,0.02723464742,449,0.02597260661,
448,0.033224307,448,0.0130069172,448,0.02750279009,448,0.02759902179,
447,0.03290547431,447,0.01312373392,447,0.02778906561,447,0.02926101349,
446,0.03273338452,446,0.01331128273,446,0.02812059782,446,0.03104414977,
445,0.03257395327,445,0.01355026569,445,0.02844221145,445,0.03282726556,
444,0.03222247213,444,0.01358650811,444,0.02862491086,444,0.03453019261,
443,0.03210104257,443,0.0137825124,443,0.02895771898,443,0.03648875281,
442,0.0319484435,442,0.01402159501,442,0.02920084633,442,0.03841616958,
441,0.03179007769,441,0.01416149642,441,0.02951650321,441,0.04036686569,
440,0.03168597817,440,0.01433132775,440,0.02986180596,440,0.04227231443,
439,0.03147418424,439,0.01449348964,439,0.03012131155,439,0.04413847998,
438,0.0313442871,438,0.01465903223,438,0.03031318448,438,0.04600164667,
437,0.03114525601,437,0.01484038774,437,0.03061117791,437,0.04789422825,
436,0.03105835803,436,0.01504717022,436,0.03085440025,436,0.04975712672,
435,0.03095232137,435,0.01529290155,435,0.03114639595,435,0.05170726404,
434,0.0307185743,434,0.0154309338,434,0.03137378022,434,0.05345690623,
433,0.03058940172,433,0.01567793079,433,0.03161361814,433,0.05532325804,
432,0.03048059344,432,0.01587563381,432,0.03180481121,432,0.05712354928,
431,0.03030779958,431,0.01613889448,431,0.03200444952,431,0.05885778368,
430,0.03017988615,430,0.01624809206,430,0.03217596933,430,0.06069079787,
429,0.03003500588,429,0.01655936241,429,0.03229580075,429,0.062533319,
428,0.02976232767,428,0.01673460007,428,0.0323365964,428,0.06419827789,
427,0.02957261167,427,0.01693275757,427,0.03244403005,427,0.066077739,
426,0.0293902345,426,0.01720180549,426,0.03253768012,426,0.06794771552,
425,0.02916042693,425,0.01746732555,425,0.03257046267,425,0.0698152706,
424,0.0288991984,424,0.01762670092,424,0.0324431099,424,0.07164200395,
423,0.02859809063,423,0.01787562296,423,0.03244765848,423,0.0736149922,
422,0.02835750952,422,0.0181818828,422,0.03249493986,422,0.07552163303,
421,0.02816890366,421,0.01846021228,421,0.03246411309,421,0.07752672583,
420,0.027859414,420,0.01873774827,420,0.0323844254,420,0.07946097851,
419,0.02749084868,419,0.01898046583,419,0.03227990493,419,0.08135895431,
418,0.02727938071,418,0.01931965537,418,0.03232242912,418,0.08338014036,
417,0.0268893037,417,0.01952779666,417,0.03214076161,417,0.08520161361,
416,0.02654646523,416,0.01982397959,416,0.03212041408,416,0.08698695153,
415,0.02621659823,415,0.02005562186,415,0.03201183677,415,0.08868665993,
414,0.02588450909,414,0.02044370398,414,0.03197583556,414,0.09033703804,
413,0.02546902932,413,0.02071393095,413,0.03186545148,413,0.09178408235,
412,0.02522600442,412,0.02104860917,412,0.03183971345,412,0.09327636659,
411,0.02489149198,411,0.0213416703,411,0.03171560913,411,0.09455695003,
410,0.02455397882,410,0.0216983296,410,0.03163544461,410,0.095692873,
409,0.02421951853,409,0.02193105593,409,0.0314601846,409,0.09663699567,
408,0.02396666072,408,0.02228416689,408,0.03131131828,408,0.09754707664,
407,0.02370648645,407,0.0226816088,407,0.03125846013,407,0.09845292568,
406,0.02345682308,406,0.02305662259,406,0.03102324158,406,0.09910140187,
405,0.02322729118,405,0.02344531938,405,0.03081074171,405,0.09978996217,
404,0.02286653779,404,0.02387598902,404,0.03054626845,404,0.1002100632,
403,0.02261394821,403,0.02418306097,403,0.03036245517,403,0.1006982252,
402,0.02237573266,402,0.02460358664,402,0.03007919714,402,0.1011435837,
401,0.02211792581,401,0.02495630085,401,0.02976889908,401,0.1014954597,
400,0.02202818356,400,0.02548602037,400,0.02948627621,400,0.1019528285,
399,0.02176821604,399,0.02581225522,399,0.02917991579,399,0.102165401,
398,0.02158772573,398,0.02641167678,398,0.02897249535,398,0.1025160477,
397,0.02157265507,397,0.02692684159,397,0.0286567919,397,0.1029035226,
396,0.0213476792,396,0.02734217793,396,0.02831736207,396,0.1030686721,
395,0.02123683877,395,0.02775437757,395,0.0279836636,395,0.1033042818,
394,0.02109874226,394,0.02824627608,394,0.02763115987,394,0.103455916,
393,0.02105474845,393,0.02873015776,393,0.02738239989,393,0.1036664993,
392,0.02107700333,392,0.02931351773,392,0.02703619562,392,0.1038743556,
391,0.02103972249,391,0.02989638597,391,0.02677615918,391,0.104031086,
390,0.02114135399,390,0.0304454118,390,0.02649580687,390,0.1041646525,
389,0.02126296237,389,0.03110031784,389,0.02641365677,389,0.1043985859,
388,0.02121618018,388,0.03151587769,388,0.02586093731,388,0.1044620275,
387,0.02156873606,387,0.03226869926,387,0.02581648529,387,0.104657419,
386,0.02167144418,386,0.03286191449,386,0.02546988055,386,0.1047373042,
385,0.02188901976,385,0.03357883915,385,0.02521324717,385,0.1050184891,
384,0.02208829112,384,0.03415814042,384,0.02476316318,384,0.1051734984,
383,0.0223577451,383,0.03478204459,383,0.02448000014,383,0.1055595204,
382,0.0228086412,382,0.0355624631,382,0.02426821366,382,0.1060470343,
381,0.02324575186,381,0.03643585369,381,0.02404979803,381,0.1065397561,
380,0.02367901243,380,0.03711060435,380,0.02366999164,380,0.1072070226,
379,0.02416516282,379,0.03782583028,379,0.02336284332,379,0.1078253761,
378,0.02468410879,378,0.03868414834,378,0.02308386564,378,0.1087266058,
377,0.02532705665,377,0.03942867368,377,0.02283142321,377,0.1095656529,
376,0.02586588264,376,0.04038780183,376,0.02253089286,376,0.1105620563,
375,0.02659564093,375,0.04117003083,375,0.02228986099,375,0.1116316766,
374,0.02739100344,374,0.04207392037,374,0.02194137499,374,0.112800993,
373,0.02829337865,373,0.04299178347,373,0.02176767029,373,0.1139643416,
372,0.02915832214,372,0.04388796166,372,0.02150413208,372,0.1150011942,
371,0.03024138138,371,0.04481515288,371,0.02133821696,371,0.1162452549,
370,0.03133215755,370,0.04574519023,370,0.02100481093,370,0.1173379049,
369,0.03238200024,369,0.04675972462,369,0.02084875479,369,0.1183752343,
368,0.03361335024,368,0.04771731421,368,0.02071327902,368,0.1191614494,
367,0.03497491777,367,0.04882277921,367,0.0205590371,367,0.1198146343,
366,0.03642197698,366,0.04995842651,366,0.02055301145,366,0.1203327626,
365,0.03774946928,365,0.05087665096,365,0.02031277679,365,0.1203335822,
364,0.03914224356,364,0.05199693888,364,0.02019569278,364,0.1199476197,
363,0.04061083868,363,0.05299739167,363,0.02004513144,363,0.1191723794,
362,0.04186341166,362,0.05413023755,362,0.01995007135,362,0.1179208308,
361,0.04318001866,361,0.05517638847,361,0.01992394403,361,0.1163365096,
360,0.04442673177,360,0.05622977763,360,0.01970811002,360,0.114286691,
359,0.04546517506,359,0.05740521848,359,0.01962254755,359,0.1120473742,
358,0.04653728381,358,0.05845616013,358,0.01964172348,358,0.1094281524,
357,0.0473078154,357,0.05968513712,357,0.01939506084,357,0.1067131087,
356,0.04791747034,356,0.06089818478,356,0.01950722001,356,0.1038478166,
355,0.0484238416,355,0.06193397939,355,0.01942808554,355,0.1008305401,
354,0.0486548394,354,0.06325168908,354,0.01932663843,354,0.09802702814,
353,0.04876074195,353,0.0644871816,353,0.01933600381,353,0.0953771919,
352,0.04860590771,352,0.06570325792,352,0.01918920316,352,0.09261140227,
351,0.04855322093,351,0.06699323654,351,0.01918021962,351,0.09011259675,
350,0.04827373102,350,0.06817319989,350,0.01927484199,350,0.08763185889,
349,0.04947123304,349,0.06993938237,349,0.01977450773,349,0.08615780622,
348,0.05036083981,348,0.07215955853,348,0.01815483719,348,0.0827178061,
347,0.04969747737,347,0.07262412459,347,0.01984627917,347,0.081057854,
346,0.0496609658,346,0.07454872131,346,0.01946062595,346,0.07843718678,
345,0.04996522143,345,0.07595136017,345,0.01896978542,345,0.07629772276,
344,0.04969425499,344,0.07725310326,344,0.01983324625,344,0.07371522486,
343,0.05044357851,343,0.07896474004,343,0.01918203384,343,0.0715860799,
342,0.0505072251,342,0.08041702956,342,0.01881521568,342,0.06897199154,
341,0.05113096908,341,0.08174590021,341,0.01916850545,341,0.06664772332,
340,0.05174911022,340,0.08341752738,340,0.01898684911,340,0.06455682963,
339,0.05299935117,339,0.08514070511,339,0.01897435449,339,0.06275252998,
338,0.05425296724,338,0.08700058609,338,0.01916574687,338,0.06074402854,
337,0.05547982827,337,0.08817301691,337,0.01897405833,337,0.05893361941,
336,0.05733919516,336,0.09049830586,336,0.01890088804,336,0.05759014562,
335,0.05964552239,335,0.09205684811,335,0.01946449652,335,0.05656373501,
334,0.06218270212,334,0.09400710464,334,0.01905359514,334,0.05565134063,
333,0.06484411657,333,0.09563263506,333,0.01943501644,333,0.05518309027,
332,0.06795740873,332,0.09752769768,332,0.01911418512,332,0.05500905588,
331,0.07112238556,331,0.09920831025,331,0.01896164566,331,0.05493998528,
330,0.07483168691,330,0.1011269838,330,0.01910991035,330,0.05590349808,
329,0.07907981426,329,0.1029950976,329,0.01928176917,329,0.0566496104,
328,0.08334764093,328,0.104616113,328,0.01907366514,328,0.05798286572,
327,0.08784148842,327,0.1067842096,327,0.01911437325,327,0.05904380605,
326,0.09230576456,326,0.1081668064,326,0.01878258772,326,0.06059942022,
325,0.09722553939,325,0.109936893,325,0.01879694127,325,0.0619963184,
324,0.1023637205,324,0.1117333099,324,0.01854935475,324,0.0636626631,
323,0.1071733907,323,0.1136235371,323,0.01882256754,323,0.06486049294,
322,0.1126770228,322,0.1156648397,322,0.01867969707,322,0.06592929363,
321,0.1173630357,321,0.1178091839,321,0.01869956031,321,0.06679683924,
320,0.1221931651,320,0.1197043359,320,0.01873353124,320,0.06732270122,
319,0.1260601133,319,0.1218839139,319,0.01879861765,319,0.06715252995,
318,0.1292284876,318,0.123244755,318,0.01832683012,318,0.06653791666,
317,0.1322553456,317,0.1253372878,317,0.01852252893,317,0.06599964947,
316,0.1342391074,316,0.1269477159,316,0.01858779974,316,0.06499233842,
315,0.1358503103,315,0.1293045431,315,0.01859898493,315,0.06402554363,
314,0.1363290101,314,0.1309588552,314,0.0184680447,314,0.0632237196,
313,0.1364275664,313,0.1333631426,313,0.01878675073,313,0.06274430454,
312,0.1352221519,312,0.1348875612,312,0.01836371608,312,0.06146618351,
311,0.1340992451,311,0.1372616887,311,0.01828546636,311,0.06098968908,
310,0.1325161457,310,0.1389990151,310,0.01859755255,310,0.06036272645,
309,0.1307245195,309,0.1410421282,309,0.01841551252,309,0.05969259143,
308,0.1289757788,308,0.1433804035,308,0.01858161204,308,0.05877630413,
307,0.1275312603,307,0.1460203379,307,0.01865616068,307,0.05828146264,
306,0.1261674613,306,0.148284629,306,0.01883586869,306,0.05729884654,
305,0.1242888272,305,0.1508692205,305,0.01882792078,305,0.05649521202,
304,0.1229120791,304,0.1529954076,304,0.01904110052,304,0.05549650267,
303,0.1213223115,303,0.1557330042,303,0.0189122986,303,0.05395644903,
302,0.1202796325,302,0.1587619185,302,0.01916712523,302,0.05283502117,
301,0.1193389595,301,0.1623791605,301,0.01938526332,301,0.05184640363,
300,0.1181201339,300,0.1656935215,300,0.0192970857,300,0.05033278838,
299,0.117340751,299,0.1695279777,299,0.01986668259,299,0.04983649403,
298,0.1168322787,298,0.1739160717,298,0.0206828434,298,0.04903674871,
297,0.1158427596,297,0.1777884662,297,0.02041982673,297,0.04787541181,
296,0.1161045432,296,0.1834837049,296,0.02118837275,296,0.04754977301,
295,0.1158821359,295,0.1883681864,295,0.02161348984,295,0.04658237845,
294,0.1160694063,294,0.1945146918,294,0.02205223031,294,0.04611504823,
293,0.1167168394,293,0.2007725835,293,0.02245406806,293,0.0458397679,
292,0.1179763302,292,0.2077534646,292,0.02331935801,292,0.045641087,
291,0.1192760319,291,0.2136839628,291,0.02356902324,291,0.04521133378,
290,0.1215676293,290,0.2207373679,290,0.02472932078,290,0.04517844692,
289,0.1238434166,289,0.2265561521,289,0.0250824932,289,0.04503243789,
288,0.1268307269,288,0.2322212607,288,0.02590569481,288,0.04436247796,
287,0.1306060255,287,0.2367635667,287,0.02662074007,287,0.04425930604,
286,0.135035485,286,0.2412619442,286,0.02771056071,286,0.04455064982,
285,0.1397110075,285,0.2444001287,285,0.02858747356,285,0.04442644492,
284,0.1451926976,284,0.2473107427,284,0.02981705591,284,0.04470748454,
283,0.1514684558,283,0.2492746264,283,0.03133207187,283,0.04471061379,
282,0.158155784,282,0.2511592209,282,0.03282690421,282,0.04495712742,
281,0.1649402976,281,0.2518717349,281,0.03420538455,281,0.04451715201,
280,0.1728746742,280,0.252769649,280,0.03629925847,280,0.04510078207,
279,0.1818027496,279,0.2531193197,279,0.03898335621,279,0.04552019387,
278,0.1910770386,278,0.252923578,278,0.041533757,278,0.04599143192,
277,0.2013648301,277,0.2519452572,277,0.04486371577,277,0.04599894211,
276,0.2127072215,276,0.2510007024,276,0.04860524461,276,0.04673234001,
275,0.2251792252,275,0.2498975843,275,0.0529368557,275,0.04685908183,
274,0.2381551117,274,0.2487957031,274,0.05755795911,274,0.04773748294,
273,0.2519915998,273,0.2474058568,273,0.06219817325,273,0.0476013571,
272,0.2665036917,272,0.246055305,272,0.06760293245,272,0.0484524928,
271,0.2816459835,271,0.2452233732,271,0.07347881794,271,0.0497363992,
270,0.2964824736,270,0.2444828898,270,0.0789546445,270,0.05119943619,
269,0.3098209798,269,0.2443074733,269,0.08453958482,269,0.05268141627,
268,0.3216237724,268,0.2440244406,268,0.09036738425,268,0.05554289371,
267,0.3316026628,267,0.2450876683,267,0.09626039863,267,0.05895799026,
266,0.3390263617,266,0.2462363988,266,0.1018362418,266,0.06388451904,
265,0.3439820409,265,0.24798958,265,0.1073730886,265,0.07035819441,
264,0.3470278382,264,0.2498073429,264,0.1124817505,264,0.07945227623,
263,0.3487456441,263,0.2522241175,263,0.1178172305,263,0.09233893454,
262,0.349920094,262,0.2552216053,262,0.1230950877,262,0.1099168584,
261,0.3504333794,261,0.2587967813,261,0.1283730865,261,0.1327878684,
260,0.3502252996,260,0.2627077699,260,0.1332102269,260,0.160467118,
259,0.3498567045,259,0.2672523558,259,0.1378772706,259,0.1938897669,
258,0.3493122458,258,0.2721619904,258,0.1424294412,258,0.2293134928,
257,0.3484381139,257,0.2777045965,257,0.1465950906,257,0.2606002092,
256,0.3476529717,256,0.2834001482,256,0.1506153196,256,0.2776163816,
255,0.3470417261,255,0.2897645533,255,0.154169783,255,0.2811054587,
254,0.3472342491,254,0.2965066135,254,0.157332167,254,0.2784261107,
253,0.3482253551,253,0.3038529754,253,0.1598165035,253,0.2778860629,
252,0.3508508801,252,0.3120602965,252,0.1619766653,252,0.2796216905,
251,0.3549483418,251,0.3209789097,251,0.1636724621,251,0.2841653526,
250,0.3597790599,250,0.3304902315,250,0.1645862162,250,0.2889177501,
249,0.3660441339,249,0.3412207663,249,0.1649502069,249,0.2931188047,
248,0.3727716804,248,0.3525414765,248,0.1646098495,248,0.2917375565,
247,0.3800872862,247,0.3646456003,247,0.1638443768,247,0.285371393,
246,0.3877061307,246,0.3780526817,246,0.1624960303,246,0.2748585343,
245,0.3958941996,245,0.3920032084,245,0.1607839763,245,0.2626846731,
244,0.4045211673,244,0.4063795507,244,0.1583394706,244,0.2508534789,
243,0.4136893153,243,0.4212072194,243,0.1560301036,243,0.2407857031,
242,0.4231657982,242,0.4366176724,242,0.1533284783,242,0.2326508611,
241,0.4322683215,241,0.4520933032,241,0.150510028,241,0.2260567993,
240,0.4409378767,240,0.4673982859,240,0.1474108696,240,0.2195073217,
239,0.4495650828,239,0.482603997,239,0.1439997107,239,0.2136561424,
238,0.4575744271,238,0.498699218,238,0.1414218247,238,0.2078620195,
237,0.4657610655,237,0.5145843625,237,0.13890481,237,0.2029925287,
236,0.4745481014,236,0.530739367,236,0.1374086142,236,0.1997501254,
235,0.4850005209,235,0.5480037332,235,0.1370863616,235,0.1992931366,
234,0.4972929955,234,0.5663968921,234,0.1380402595,234,0.2019390315,
233,0.5112974048,233,0.5853561163,233,0.140346691,233,0.2069688141,
232,0.5271438956,232,0.6051211953,232,0.1439701319,232,0.2149448842,
231,0.5447497368,231,0.6256055832,231,0.1485769749,231,0.2240950018,
230,0.5626713634,230,0.6457169652,230,0.1538390666,230,0.233924076,
229,0.5799682736,229,0.665361464,229,0.158958137,229,0.2428497523,
228,0.5969492197,228,0.6843228936,228,0.1643681228,228,0.2518056333,
227,0.6138321161,227,0.703956306,227,0.1704260558,227,0.260520488,
226,0.6296865344,226,0.7229818702,226,0.1767481863,226,0.2691011131,
225,0.644985795,225,0.7423410416,225,0.1833965778,225,0.2770454586,
224,0.6596400142,224,0.7619677186,224,0.1902376264,224,0.2851506174,
223,0.6724256277,223,0.7817470431,223,0.1968275309,223,0.2920137346,
222,0.6843433976,222,0.801844418,222,0.2031867653,222,0.2991646826,
221,0.6950585842,221,0.8231577873,221,0.2101713866,221,0.30565539,
220,0.703998208,220,0.8449089527,220,0.2173793465,220,0.3125421703,
219,0.7121665478,219,0.8691835999,219,0.2263646871,219,0.3190885484,
218,0.7192589045,218,0.8948892355,218,0.2374773622,218,0.3255179226,
217,0.7257212996,217,0.9235889912,217,0.2518775761,217,0.3319149911,
216,0.7322249413,216,0.9552735686,216,0.2708940804,216,0.3384810686,
215,0.7387818694,215,0.9901892543,215,0.294437319,215,0.3458682597,
214,0.745079875,214,1.027885795,214,0.3218693435,214,0.3545506597,
213,0.7498846054,213,1.068515658,213,0.3496147394,213,0.3655241132,
212,0.7521048784,212,1.110729098,212,0.3734510839,212,0.3787588775,
211,0.7510278225,211,1.154625535,211,0.3904061615,211,0.3962656856,
210,0.7462567687,210,1.198356986,210,0.3993356228,210,0.4173843861,
209,0.7379119396,209,1.240775704,209,0.4015288353,209,0.443143934,
208,0.7262344956,208,1.280807018,208,0.3981583714,208,0.4721938372,
207,0.7125946283,207,1.316475868,207,0.3910644054,207,0.5052482486,
206,0.6961905956,206,1.346772909,206,0.3802205026,206,0.5390216112,
205,0.6785122156,205,1.370802999,205,0.3664910197,205,0.5723694563,
204,0.6602799892,204,1.38791275,204,0.3515737057,204,0.6006405354,
203,0.6419252753,203,1.398408651,203,0.335711807,203,0.6224273443,
202,0.6244598627,202,1.400667071,202,0.3206157088,202,0.6370155811,
201,0.6085627675,201,1.395610094,201,0.3067740202,201,0.6492213607,
200,0.5947096944,200,1.384533405,200,0.2948657572,200,0.6603417397,

