RB,,lig,,jug,,pn,,
Wavelength (nm),Abs,Wavelength (nm),Abs,Wavelength (nm),Abs,Wavelength (nm),Abs,
800,-0.001851759851,800,-0.003372034989,800,-0.002355745761,800,-0.00459178118,
799,-0.001847223262,799,-0.003320506308,799,-0.002313571749,799,-0.004434484523,
798,-0.001845831401,798,-0.003294097492,798,-0.002393281553,798,-0.004456929397,
797,-0.001962478738,797,-0.003286493011,797,-0.002352244221,797,-0.004584660288,
796,-0.002028236864,796,-0.003453297075,796,-0.002525223885,796,-0.004649664275,
795,-0.001978713088,795,-0.003352513304,795,-0.002509318758,795,-0.004717884585,
794,-0.001851966139,794,-0.00330987107,794,-0.00240744045,794,-0.004518109839,
793,-0.001902689924,793,-0.003385956399,793,-0.002359710634,793,-0.004680498037,
792,-0.001914442168,792,-0.003543325234,792,-0.002399768913,792,-0.004646488465,
791,-0.001985464245,791,-0.003399158362,791,-0.002322944114,791,-0.004497665912,
790,-0.001780870603,790,-0.003362171585,790,-0.002286174567,790,-0.004441607278,
789,-0.001802679966,789,-0.003257821081,789,-0.002258827211,789,-0.00445846701,
788,-0.001773549011,788,-0.0032768331,788,-0.002254037419,788,-0.004434279166,
787,-0.001837325166,787,-0.003298207885,787,-0.002280406421,787,-0.004450318869,
786,-0.001959180227,786,-0.003322664183,786,-0.002341430634,786,-0.00453271158,
785,-0.001886091894,785,-0.003203452332,785,-0.002259548288,785,-0.004415010568,
784,-0.001866915845,784,-0.003375785192,784,-0.002295959508,784,-0.00448337011,
783,-0.00182216824,783,-0.003242097097,783,-0.002321296139,783,-0.004560633563,
782,-0.001890061074,782,-0.003245128784,782,-0.002395083662,782,-0.004518724512,
781,-0.001902689924,781,-0.003259979188,781,-0.002318412531,781,-0.004607507493,
780,-0.001859956537,780,-0.003222826403,780,-0.002292045625,780,-0.004369653296,
779,-0.001846192288,779,-0.003247749526,779,-0.002308216179,779,-0.004471635912,
778,-0.001893514767,778,-0.003174158279,778,-0.002372737741,778,-0.004361503758,
777,-0.00196727179,777,-0.003286595689,777,-0.002364962595,777,-0.004478400107,
776,-0.001897071372,776,-0.003213833319,776,-0.002251977101,776,-0.004455136135,
775,-0.001901349751,775,-0.003243484534,775,-0.002296010964,775,-0.004426028579,
774,-0.002018085215,774,-0.003345783334,774,-0.002472462133,774,-0.004575490486,
773,-0.00189207145,773,-0.003218304133,773,-0.002334685065,773,-0.004428232089,
772,-0.001886195038,772,-0.003160641063,772,-0.002308267634,772,-0.004379647784,
771,-0.001798039768,771,-0.003149179509,771,-0.002272887388,771,-0.004393126816,
770,-0.001942790579,770,-0.003111092141,770,-0.002293384634,770,-0.004423056263,
769,-0.001949284691,769,-0.00321773882,769,-0.002367588691,769,-0.004374624696,
768,-0.001880473224,768,-0.003163159592,768,-0.00233097747,768,-0.004339361563,
767,-0.001884957892,767,-0.003142703325,767,-0.002296062419,767,-0.004299840424,
766,-0.001932018436,766,-0.003168915864,766,-0.002263050526,766,-0.004395586904,
765,-0.001958304085,765,-0.003108059289,765,-0.002268406563,765,-0.004339873791,
764,-0.00180082384,764,-0.003129339544,764,-0.002214016858,764,-0.004346075933,
763,-0.001803762629,763,-0.003086212557,763,-0.002239564434,763,-0.0042797965,
762,-0.001863513491,762,-0.003132423619,762,-0.002299718792,762,-0.004368986934,
761,-0.001960984198,761,-0.003019688884,761,-0.002280406421,761,-0.004363502841,
760,-0.001969384728,760,-0.003112274222,760,-0.002264543902,760,-0.004345614463,
759,-0.001902793068,759,-0.003034752794,759,-0.002308730967,759,-0.004345153458,
758,-0.001924854005,758,-0.003148151562,758,-0.00239117071,758,-0.004322856199,
757,-0.001909854705,757,-0.003047348466,757,-0.002385970438,757,-0.00425190758,
756,-0.001832427573,756,-0.003105026437,756,-0.002289676573,756,-0.00437165238,
755,-0.001954541774,755,-0.003138231579,755,-0.002341997111,755,-0.004266211297,
754,-0.001949954662,754,-0.003002927871,754,-0.002209226601,754,-0.004280103836,
753,-0.001907328959,753,-0.003050535917,753,-0.00232036924,753,-0.00424021855,
752,-0.001896710601,752,-0.002964673331,752,-0.002228851197,752,-0.004276310559,
751,-0.002012158977,751,-0.003035215428,751,-0.002346168039,751,-0.004282769747,
750,-0.001843975508,750,-0.00292363856,750,-0.00223003584,750,-0.004261392169,
749,-0.001912741223,749,-0.002963387873,749,-0.002243375871,749,-0.004263032693,
748,-0.001910164021,748,-0.002960508456,748,-0.002315734746,748,-0.004185562488,
747,-0.001834335038,747,-0.002838573884,747,-0.00206106063,747,-0.004160693381,
746,-0.001923720003,746,-0.002968838438,746,-0.002283496549,746,-0.004221812822,
745,-0.001873565721,745,-0.002977373777,745,-0.002302808687,745,-0.004178742878,
744,-0.001890731161,744,-0.002913044998,744,-0.002188570797,744,-0.004239500966,
743,-0.001985000446,743,-0.002907696646,743,-0.002236319706,743,-0.004120181315,
742,-0.001936605666,742,-0.002850197954,742,-0.002224679105,742,-0.004110027105,
741,-0.001930678263,741,-0.002755653346,741,-0.002222206676,741,-0.004127412103,
740,-0.001979382941,740,-0.002971614944,740,-0.002238791902,740,-0.004211865831,
739,-0.001923256204,739,-0.002902142471,739,-0.00223745266,739,-0.004219915718,
738,-0.001945212949,738,-0.002840991365,738,-0.002312850906,738,-0.004110591486,
737,-0.002046581358,737,-0.002867582021,737,-0.002310018521,737,-0.004141360987,
736,-0.002030298114,736,-0.002906256588,736,-0.002201294061,736,-0.004222735297,
735,-0.002041273983,735,-0.00294806459,735,-0.002307443647,735,-0.004256060347,
734,-0.001968972618,734,-0.002884811256,734,-0.002285917057,734,-0.004159924109,
733,-0.001976187807,733,-0.002873342251,733,-0.002330565359,733,-0.00421048142,
732,-0.001983969705,732,-0.002901576692,732,-0.002300645923,732,-0.004192279652,
731,-0.002028958406,731,-0.002856678562,731,-0.002364705084,731,-0.004168846179,
730,-0.002053331584,730,-0.002964981832,730,-0.002399614546,730,-0.004276207648,
729,-0.002054465236,729,-0.002816816559,729,-0.002341224812,729,-0.004267390352,
728,-0.002056938596,728,-0.002898491221,728,-0.002386021893,728,-0.004233348649,
727,-0.002031586366,727,-0.002847471973,727,-0.002370626666,727,-0.004286460578,
726,-0.002037151717,726,-0.00292631262,726,-0.002355694072,726,-0.004277181812,
725,-0.002062194282,725,-0.00282607507,725,-0.002352501731,725,-0.00423529651,
724,-0.002068480477,724,-0.002715524752,724,-0.002310791053,724,-0.004172692075,
723,-0.002137210686,723,-0.002859198721,723,-0.002435447881,723,-0.004335414618,
722,-0.002100528451,722,-0.002867273521,722,-0.002355539706,722,-0.00426928699,
721,-0.002118612407,721,-0.002955109114,721,-0.002443633508,721,-0.004312193953,
720,-0.002122630831,720,-0.002872313838,720,-0.002364962595,720,-0.004303274676,
719,-0.002167244442,719,-0.002857655752,719,-0.002451098058,719,-0.004266621079,
718,-0.002204642165,718,-0.002950686961,718,-0.002438227879,718,-0.004310194869,
717,-0.002160805278,717,-0.00283389329,717,-0.00238911109,717,-0.004225606564,
716,-0.002144217025,716,-0.002809872385,716,-0.00242715911,716,-0.004233245738,
715,-0.002302499721,715,-0.002903839573,715,-0.002464740304,715,-0.004371190909,
714,-0.002085174667,714,-0.002866193419,714,-0.002367279725,714,-0.004219864495,
713,-0.002176516922,713,-0.002817330882,713,-0.002419076161,713,-0.00424314104,
712,-0.002207578393,712,-0.002858272986,712,-0.002468807157,712,-0.004231707659,
711,-0.002243375871,711,-0.002871490782,711,-0.002533356193,711,-0.004410500638,
710,-0.002271548379,710,-0.002784975572,710,-0.002495574998,710,-0.004346793517,
709,-0.00225171959,709,-0.002834150568,709,-0.002498303307,709,-0.00429491885,
708,-0.002274947474,708,-0.002806323115,708,-0.002488986123,708,-0.004254471045,
707,-0.002346940571,707,-0.002891754033,707,-0.002571957652,707,-0.004355404526,
706,-0.002288904041,706,-0.002796652727,706,-0.002493876498,706,-0.004296456929,
705,-0.002325621899,705,-0.002821188653,705,-0.002462114906,705,-0.004266980104,
704,-0.002280149143,704,-0.002808946418,704,-0.002496553119,704,-0.00427779695,
703,-0.002377938014,703,-0.002845569048,703,-0.002590536606,703,-0.004384824075,
702,-0.002390089445,702,-0.002873085206,702,-0.002566244919,702,-0.004365604371,
701,-0.002406513784,701,-0.002820982831,701,-0.002510708524,701,-0.004364066757,
700,-0.002371759387,700,-0.002782969503,700,-0.002527334262,700,-0.004322548863,
699,-0.00238911109,699,-0.002848140663,699,-0.00248867739,699,-0.004383747932,
698,-0.002338444116,698,-0.002802722389,698,-0.002532532671,698,-0.004335465841,
697,-0.002448215149,697,-0.002861153102,697,-0.00263993931,697,-0.004434279166,
696,-0.002386536682,696,-0.002770726336,696,-0.00255240011,696,-0.004335721955,
695,-0.002391531132,695,-0.002772629727,695,-0.002488574479,695,-0.004312655423,
694,-0.00240805815,694,-0.002789553953,694,-0.002599336905,694,-0.004322189838,
693,-0.002420157194,693,-0.002753338311,693,-0.002512149746,693,-0.004388821777,
692,-0.002499744529,692,-0.002783175325,692,-0.002667931607,692,-0.004392665345,
691,-0.002477970207,691,-0.002751949243,691,-0.00255852472,691,-0.004366475623,
690,-0.002501854906,690,-0.002796704182,690,-0.00263103703,690,-0.004437046591,
689,-0.002512355801,689,-0.002704257146,689,-0.002591977594,689,-0.004375137389,
688,-0.002506024437,688,-0.002769594546,688,-0.002644982189,688,-0.004423466511,
687,-0.002576023573,687,-0.002802876756,687,-0.002685426036,687,-0.004417470191,
686,-0.002588220639,686,-0.002722315956,686,-0.002675598254,686,-0.004417521413,
685,-0.002584669739,685,-0.002775407629,685,-0.002689284971,685,-0.004415266681,
684,-0.002590279328,684,-0.002733788919,684,-0.002673025709,684,-0.004384977743,
683,-0.002665410284,683,-0.002764758887,683,-0.002679611789,683,-0.004424029961,
682,-0.002624347107,682,-0.002778494032,682,-0.002724631224,682,-0.004467895254,
681,-0.002691394417,681,-0.002765119076,681,-0.002723807935,681,-0.004444477148,
680,-0.00262326654,680,-0.002695150441,680,-0.002674826421,680,-0.00441829022,
679,-0.002658463782,679,-0.002774121473,679,-0.002742894925,679,-0.004473532084,
678,-0.002737029921,678,-0.002834150568,678,-0.002785335761,678,-0.004504019395,
677,-0.002756527858,677,-0.002766096499,677,-0.002726329025,677,-0.004489263054,
676,-0.002691960428,676,-0.002774636028,676,-0.002782918047,676,-0.004510065541,
675,-0.002754984656,675,-0.002738676267,675,-0.002722213045,675,-0.004504327197,
674,-0.002782094991,674,-0.002765119076,674,-0.002831167309,674,-0.004468048923,
673,-0.002790531376,673,-0.002755550435,673,-0.002766456455,673,-0.004521389026,
672,-0.002834716346,672,-0.002785850083,672,-0.002788627986,672,-0.004514984321,
671,-0.002839294029,671,-0.002780603245,671,-0.002829932841,671,-0.004539218731,
670,-0.002885171212,670,-0.002775150351,670,-0.00284124841,670,-0.004544854164,
669,-0.002880028216,669,-0.002763524186,669,-0.002862284658,669,-0.004566678777,
668,-0.002969815396,668,-0.002821240108,668,-0.002938191406,668,-0.004657091107,
667,-0.002960714046,667,-0.002840528497,667,-0.002937214449,667,-0.004649152048,
666,-0.002983801067,666,-0.002831167309,666,-0.002970997943,666,-0.004627177957,
665,-0.003031513887,665,-0.00288064545,665,-0.002965290332,665,-0.004685670603,
664,-0.003050535917,664,-0.002855341183,664,-0.003000717144,664,-0.004637934733,
663,-0.003054442815,663,-0.002836156404,663,-0.003000871278,663,-0.004672098439,
662,-0.003047554055,662,-0.002786519006,662,-0.002956343349,662,-0.004672047216,
661,-0.003044932149,661,-0.002749531297,661,-0.002943230793,661,-0.004624821246,
660,-0.003060457762,660,-0.002760746283,660,-0.002979893237,660,-0.004626819398,
659,-0.003055419773,659,-0.002748708241,659,-0.002972386312,659,-0.00464956183,
658,-0.003104872303,658,-0.002765273442,658,-0.002987708896,658,-0.004634349141,
657,-0.00315318862,657,-0.002779214177,657,-0.003034444293,657,-0.004669537302,
656,-0.003130521625,656,-0.002733634552,656,-0.003015884431,656,-0.004669281188,
655,-0.003135353327,655,-0.00274793664,655,-0.003021231387,655,-0.004722186364,
654,-0.003171125893,654,-0.002744386904,654,-0.003014701884,654,-0.004699806217,
653,-0.003145684488,653,-0.00271701673,653,-0.002983286977,653,-0.004657757003,
652,-0.003142908914,652,-0.002687586937,652,-0.003050175961,652,-0.004672712646,
651,-0.00316485553,651,-0.002716348041,651,-0.003016244387,651,-0.004693250638,
650,-0.003200111911,650,-0.002732914174,650,-0.003064313438,650,-0.004741441924,
649,-0.003197439481,649,-0.00271418714,649,-0.003038043156,649,-0.004730226938,
648,-0.003184025874,648,-0.002666285029,648,-0.003057990223,648,-0.004725720268,
647,-0.003218355589,647,-0.002685631858,647,-0.003088166006,647,-0.004724132363,
646,-0.003218920901,646,-0.002677296288,646,-0.003024778794,646,-0.00471148314,
645,-0.003219486214,645,-0.002670607297,645,-0.003037066199,645,-0.004723313265,
644,-0.003238499863,644,-0.002662940416,644,-0.002993518952,644,-0.004718550481,
643,-0.003238088684,643,-0.002681927057,643,-0.003042155877,643,-0.004760952201,
642,-0.003224008484,642,-0.002648841357,642,-0.003027298022,642,-0.004704313353,
641,-0.003261777805,641,-0.002621310996,641,-0.002968529938,641,-0.004742004909,
640,-0.003196771489,640,-0.002561098197,640,-0.002984932158,640,-0.004741339479,
639,-0.00325062708,639,-0.002629596042,639,-0.003016347066,639,-0.004754448775,
638,-0.003295484697,638,-0.002603814239,638,-0.003003956284,638,-0.004804630298,
637,-0.003254224081,637,-0.002569538774,637,-0.002994752955,637,-0.004714043811,
636,-0.003265426029,636,-0.002566656563,636,-0.003020922886,636,-0.004787272308,
635,-0.003316036426,635,-0.00261724554,635,-0.003035729518,635,-0.004784455989,
634,-0.003356058151,634,-0.002635668265,634,-0.003091918537,634,-0.004865761381,
633,-0.003336227499,633,-0.002689490793,633,-0.003123376984,633,-0.004890948534,
632,-0.003329394618,632,-0.002605821239,632,-0.003065187251,632,-0.004825571552,
631,-0.003333196277,631,-0.002589713084,631,-0.003064827528,631,-0.004830025602,
630,-0.003370648017,630,-0.002655170625,630,-0.003115923842,630,-0.004897859413,
629,-0.003386059077,629,-0.00257556024,629,-0.003102199407,629,-0.004870317876,
628,-0.003339772578,628,-0.002555900021,628,-0.003077062313,628,-0.004904667847,
627,-0.003339053132,627,-0.002584978472,627,-0.003048273735,627,-0.004889566451,
626,-0.003335354151,626,-0.002554767532,626,-0.003053620458,626,-0.004848047625,
625,-0.003326928476,625,-0.002524812007,625,-0.003075057408,625,-0.004865505267,
624,-0.003348608967,624,-0.002554047154,624,-0.003009560518,624,-0.004839702509,
623,-0.003307610285,623,-0.002479514573,623,-0.003054391593,623,-0.004881017376,
622,-0.003353643697,622,-0.002492898377,622,-0.003007503925,622,-0.004869191442,
621,-0.003344190773,621,-0.002501288895,621,-0.003043595469,621,-0.004904770292,
620,-0.003229712602,620,-0.002376547782,620,-0.002939219819,620,-0.004779130686,
619,-0.003297488438,619,-0.002401879989,619,-0.002997683594,619,-0.004835350439,
618,-0.003278580261,618,-0.002349721035,618,-0.002993621631,618,-0.004838473629,
617,-0.003266196698,617,-0.002323098714,617,-0.002967912704,617,-0.004804425407,
616,-0.00327431527,616,-0.002386124805,616,-0.002997632138,616,-0.004843286239,
615,-0.003310333472,615,-0.002377320314,615,-0.003025395796,615,-0.004863815848,
614,-0.003361760639,614,-0.002379688667,614,-0.003029971616,614,-0.004880300723,
613,-0.003290449269,613,-0.002318206476,613,-0.003033107612,613,-0.004855368752,
612,-0.003231151495,612,-0.002308628056,612,-0.002995781135,612,-0.004864071961,
611,-0.003287315136,611,-0.002319596941,611,-0.003053209046,611,-0.004918131046,
610,-0.003259259975,610,-0.002308628056,610,-0.003069557017,610,-0.004874618258,
609,-0.003249445232,609,-0.002301469911,609,-0.003055933863,609,-0.004924990237,
608,-0.003193328157,608,-0.002295701997,608,-0.003075057408,608,-0.004945669789,
607,-0.003110732185,607,-0.00224729022,607,-0.003031565342,607,-0.004893098492,
606,-0.003077165224,606,-0.002225503093,606,-0.003045806196,606,-0.00489361072,
605,-0.002995935502,605,-0.002208865946,605,-0.003003801918,605,-0.004898576066,
604,-0.00304524065,604,-0.002298791893,604,-0.003069557017,604,-0.005014815833,
603,-0.002954800613,603,-0.0021871801,603,-0.003086366691,603,-0.004924324807,
602,-0.002743872348,602,-0.002156632487,602,-0.002992541995,602,-0.004933640826,
601,-0.002600417705,601,-0.002089347923,601,-0.002996089635,601,-0.004917670041,
600,-0.00250180345,600,-0.002053280128,600,-0.00296256505,600,-0.004897347651,
599,-0.002310481854,599,-0.002015302423,599,-0.002886816859,599,-0.004860180896,
598,-0.002114387695,598,-0.00199582288,598,-0.002863261849,598,-0.00487379916,
597,-0.001949284691,597,-0.001962272683,597,-0.002853952581,597,-0.004835401662,
596,-0.00166448392,596,-0.00201313803,596,-0.002840477042,596,-0.004868065007,
595,-0.001315652742,595,-0.001947738463,595,-0.002825766569,595,-0.004852501675,
594,-0.0009646815015,594,-0.00194088358,594,-0.002836722182,594,-0.004870112985,
593,-0.0005164802424,593,-0.001876349328,593,-0.002780500334,593,-0.004900419153,
592,4.01509933E-5,592,-0.001858873991,592,-0.002739756601,592,-0.004864839837,
591,0.0007041252102,591,-0.001908617676,591,-0.002810489619,591,-0.004952733405,
590,0.001449415693,590,-0.001881813514,590,-0.002728386782,590,-0.004879839718,
589,0.002343165455,589,-0.001790409093,589,-0.002725248691,589,-0.004876716994,
588,0.003485229798,588,-0.001771641197,588,-0.002648018068,588,-0.004842671566,
587,0.004729057197,587,-0.001774992677,587,-0.002610143973,587,-0.004872160498,
586,0.006328724325,586,-0.001723480411,586,-0.002606747439,586,-0.004840930924,
585,0.008233183064,585,-0.001707288087,585,-0.002535518026,585,-0.004878099076,
584,0.01035300083,584,-0.00169511768,584,-0.002538091503,584,-0.004920946434,
583,0.01302577555,583,-0.001663555508,583,-0.002439463278,583,-0.004922481719,
582,0.01618601941,582,-0.001635859371,582,-0.002416089876,582,-0.004866682924,
581,0.01986064017,581,-0.001673612394,581,-0.002422062214,581,-0.004919257015,
580,0.02436638623,580,-0.001623377553,580,-0.002239976544,580,-0.004844719544,
579,0.02951855212,579,-0.001575561357,579,-0.002182028955,579,-0.004863969516,
578,0.03561061993,578,-0.001585517079,578,-0.002168480773,578,-0.004957032856,
577,0.04291145131,577,-0.00155492709,577,-0.002128864639,577,-0.004985029809,
576,0.05152077228,576,-0.001585259102,576,-0.002070850693,576,-0.004937070422,
575,0.06169676408,575,-0.001530886977,575,-0.00190408167,575,-0.004930825438,
574,0.07351340353,574,-0.001453650184,574,-0.001770506846,574,-0.004899395164,
573,0.08726348728,573,-0.001509167138,573,-0.001781283063,573,-0.005007139407,
572,0.1033587307,572,-0.001479655271,572,-0.001654478372,572,-0.004975970369,
571,0.1219885945,571,-0.00138728891,571,-0.001490799827,571,-0.004959489685,
570,0.1435693949,570,-0.001353227068,570,-0.001395287924,570,-0.00502315769,
569,0.1682354808,569,-0.00130496826,569,-0.0008817123598,569,-0.004878815729,
568,0.1966631114,568,-0.001313588116,568,-0.0007806400536,568,-0.004933640826,
567,0.2284857482,567,-0.001308891107,567,-0.0006639849744,567,-0.004949355032,
566,0.2639263868,566,-0.00120306504,566,-0.0004526649136,566,-0.004961127415,
565,0.30385378,565,-0.001129746088,565,-0.0002881187829,565,-0.004928522278,
564,0.3470427096,564,-0.001169350231,564,-0.000162999233,564,-0.004906203598,
563,0.393989712,563,-0.001180089661,563,8.231815627E-6,563,-0.004938861821,
562,0.4439713061,562,-0.001042676624,562,0.0002336060279,562,-0.004914854653,
561,0.4968525171,561,-0.001070565544,561,0.0003453266399,561,-0.005017988849,
560,0.5519546866,560,-0.001031572232,560,0.0005139074638,560,-0.004981037695,
559,0.6079713106,559,-0.001069119549,559,0.0007057068287,559,-0.005003249738,
558,0.6633760929,558,-0.000996914343,558,0.0009149188991,558,-0.005016607232,
557,0.7179541588,557,-0.001003939076,557,0.001029020525,557,-0.005050587468,
556,0.7694445848,556,-0.0009441215079,556,0.001233222429,556,-0.005045061,
555,0.8170962334,555,-0.000888584007,555,0.001392695471,555,-0.00503109023,
554,0.8590102196,554,-0.0009280550876,554,0.001480479958,554,-0.005044907331,
553,0.8943086863,553,-0.0008450272726,553,0.001616373076,553,-0.005062766839,
552,0.9223985076,552,-0.0007919576019,552,0.001673122519,552,-0.005035184324,
551,0.9422035217,551,-0.0007737150299,551,0.001756987069,551,-0.00500442693,
550,0.9534971714,550,-0.0007437914028,550,0.001802629558,550,-0.005083593074,
549,0.9565731883,549,-0.000731283857,549,0.00171576743,549,-0.005068651401,
548,0.951412499,548,-0.0006345190341,548,0.001767877373,548,-0.005073461682,
547,0.9386617541,547,-0.000626040739,547,0.001637549372,547,-0.005052583292,
546,0.9192870259,546,-0.0006386547466,546,0.001560852048,546,-0.005153689533,
545,0.8942461014,545,-0.0006861089496,545,0.001389501267,545,-0.005160647444,
544,0.8644068837,544,-0.0005581568112,544,0.001346135279,544,-0.005091524217,
543,0.8312157393,543,-0.0005883517442,543,0.001171443029,543,-0.005153178237,
542,0.7952028513,542,-0.0005268221721,542,0.0009953679983,542,-0.005182901863,
541,0.7578213811,541,-0.0004943993408,541,0.0008620034205,541,-0.005201369524,
540,0.7194780111,540,-0.0004811605904,540,0.0006656238693,540,-0.005219375715,
539,0.680731535,539,-0.0004890211276,539,0.0006232893211,539,-0.005177683663,
538,0.6428350806,538,-0.0004487343249,538,0.0004233123909,538,-0.005260807928,
537,0.6062059999,537,-0.0004124264524,537,0.0002264059149,537,-0.005267355125,
536,0.5712617636,536,-0.0002939651022,536,0.0001767076756,536,-0.005247867201,
535,0.5379622579,535,-0.0003268167784,535,1.716273619E-5,535,-0.005248276517,
534,0.5067790151,534,-0.0002108676708,534,-3.820600978E-5,534,-0.005184436683,
533,0.4774890244,533,-0.000274770282,533,-0.0002314106678,533,-0.005320596509,
532,0.450987339,532,-0.000209315258,532,-0.0002931373019,532,-0.005298860837,
531,0.4265532494,531,-0.0001744363835,531,-0.0003318865784,531,-0.005311902612,
530,0.4045852423,530,-0.0001109848527,530,-0.0004329599033,530,-0.005343967583,
529,0.3849107623,529,-0.0001205601075,529,-0.0004924859386,529,-0.005348314531,
528,0.3675828278,528,-5.906776278E-5,528,-0.0005250640679,528,-0.005432224367,
527,0.3525337577,527,5.46487172E-5,527,-0.0005773908342,527,-0.005403795745,
526,0.3397009671,526,-2.117420627E-5,526,-0.0005716517335,526,-0.005394694395,
525,0.3290005028,525,9.858495469E-5,525,-0.0005966756726,525,-0.005387280136,
524,0.3203735054,524,8.431878086E-5,524,-0.000583284942,524,-0.005449096207,
523,0.3136220276,523,0.0001870923006,523,-0.0005756329047,523,-0.005461724475,
522,0.308701396,522,0.0001864448714,522,-0.0005964688607,522,-0.005420668982,
521,0.3053024411,521,0.0002631847165,521,-0.000535509258,521,-0.005444290582,
520,0.3032939732,520,0.0002960810671,520,-0.0005051555345,520,-0.005422662944,
519,0.3023583889,519,0.0003708712757,519,-0.0005127570475,519,-0.005505280569,
518,0.3022702634,518,0.0003649383434,518,-0.0004728861677,518,-0.00549505651,
517,0.3027356267,517,0.0004749305954,517,-0.0003884264152,517,-0.005470108707,
516,0.3033409715,516,0.0004693072406,516,-0.0004462518264,516,-0.005562888924,
515,0.3039754927,515,0.0005422093091,515,-0.0003488027432,515,-0.005563246552,
514,0.3041666448,514,0.0006078653387,514,-0.0002774089517,514,-0.005563859828,
513,0.3036174178,513,0.0006409433554,513,-0.0002232349798,513,-0.005532475654,
512,0.3022301495,512,0.0007050067652,512,-0.0001483012747,512,-0.005574388895,
511,0.2996693254,511,0.0007319727447,511,-9.638864867E-5,511,-0.005619364791,
510,0.2957615554,510,0.0008375710458,510,-2.272728489E-5,510,-0.005624373443,
509,0.2905291915,509,0.000882105378,509,3.624050578E-6,509,-0.005628001876,
508,0.2838743925,508,0.0009308207664,508,0.0001417229068,508,-0.00559258461,
507,0.2759138942,507,0.0009541168693,507,0.0001897079201,507,-0.005597030744,
506,0.2667680979,506,0.00100050529,506,0.0002051688643,506,-0.005650845356,
505,0.2566431463,505,0.001027697232,505,0.0002680801554,505,-0.005675527267,
504,0.2457123101,504,0.001202824875,504,0.0004038016777,504,-0.005622686818,
503,0.2341290563,503,0.001201163512,503,0.000394888717,503,-0.005704602227,
502,0.222318992,502,0.00130199478,502,0.0005671434337,502,-0.005638478324,
501,0.2103409618,501,0.0013499005,501,0.0006422395818,501,-0.005673534237,
500,0.1984074265,500,0.00139266951,500,0.0007426558877,500,-0.005738988519,
499,0.1866396666,499,0.001463882625,499,0.0008103391738,499,-0.005673125386,
498,0.1753073335,498,0.0015088449,498,0.0009820841951,498,-0.00573771121,
497,0.1643564403,497,0.001564177335,497,0.001124050235,497,-0.00574711198,
496,0.1540898681,496,0.001649865764,496,0.00126074045,496,-0.005747061223,
495,0.1443342119,495,0.001651216997,495,0.001368103432,495,-0.005815518089,
494,0.1353262514,494,0.001758364611,494,0.001562410733,494,-0.005772810429,
493,0.1269481629,493,0.001885531121,493,0.001786149922,493,-0.005787370261,
492,0.1192002073,492,0.001880409429,492,0.00195118261,492,-0.005826603156,
491,0.1120999828,491,0.001933735213,491,0.002108682413,491,-0.005851326045,
490,0.1057842374,490,0.002090890659,490,0.002357688267,490,-0.005759782623,
489,0.09987449646,489,0.002110061003,489,0.002514190041,489,-0.005867568776,
488,0.09465762973,488,0.002192292828,488,0.002793049905,488,-0.005807293579,
487,0.08989696205,487,0.002295696642,487,0.002964903135,487,-0.005836002063,
486,0.08573397994,486,0.002351545962,486,0.00320908078,486,-0.005831507035,
485,0.08187103271,485,0.002430569613,485,0.00341984164,485,-0.005876353942,
484,0.07852833718,484,0.002490549814,484,0.003638222814,484,-0.005836410448,
483,0.07545569539,483,0.002644573105,483,0.003913913388,483,-0.005905619822,
482,0.07270466536,482,0.002708516084,482,0.004219027702,482,-0.005862103309,
481,0.07008430362,481,0.002760302508,481,0.004412967246,481,-0.005925588775,
480,0.06772898138,480,0.002861209679,480,0.004720238037,480,-0.005855514668,
479,0.06553414464,479,0.002962140599,479,0.004951423034,479,-0.005798558239,
478,0.06327648461,478,0.003010307904,478,0.005170104094,478,-0.00585224526,
477,0.06117415056,477,0.003149131546,477,0.005490494426,477,-0.005736995954,
476,0.05892131478,476,0.003211166942,476,0.005746955518,476,-0.005729332101,
475,0.05688189715,475,0.003326212522,475,0.00601742696,475,-0.005684674252,
474,0.05464033037,474,0.003456448438,474,0.006322079338,474,-0.00568135269,
473,0.0524376072,473,0.003548278706,473,0.00662124157,473,-0.005551030394,
472,0.05021706223,472,0.003605777165,472,0.006956750527,472,-0.005478032865,
471,0.04799002782,471,0.003729412798,471,0.007276645862,471,-0.005401904229,
470,0.04573357105,470,0.003773356788,470,0.007581234444,470,-0.005250885151,
469,0.04348397255,469,0.003937657457,469,0.007967920043,469,-0.005079346243,
468,0.04131366313,468,0.004040119238,468,0.008308904245,468,-0.004846408963,
467,0.03913975134,467,0.004142526537,467,0.008682162501,467,-0.004609863739,
466,0.03713380918,466,0.004268615507,466,0.008994054981,466,-0.004363502841,
465,0.03516195714,465,0.00438472582,465,0.009346690029,465,-0.003967741504,
464,0.03329313919,464,0.004465009551,464,0.009753085673,464,-0.003611565568,
463,0.03158909082,463,0.004627584014,463,0.01010988839,463,-0.003138385946,
462,0.02999753132,462,0.004734343383,462,0.01048544049,462,-0.002671584953,
461,0.02844464406,461,0.004804038908,461,0.01072775573,461,-0.002096303739,
460,0.02712392062,460,0.004931262694,460,0.01111743972,460,-0.001411801437,
459,0.02593781613,459,0.005111402832,459,0.01156654116,459,-0.000609290495,
458,0.02475847863,458,0.005165677052,458,0.01182712242,458,0.0002162016463,
457,0.02374875359,457,0.005290308036,457,0.01217799354,457,0.001191974618,
456,0.02288162708,456,0.005448630545,456,0.01245516445,456,0.002259474015,
455,0.02213309705,455,0.005605988204,455,0.01275855675,455,0.003422372509,
454,0.02144905552,454,0.005687206052,454,0.01310180407,454,0.004708043765,
453,0.02085410431,453,0.005888047628,453,0.01341200247,453,0.006123557221,
452,0.02025511116,452,0.00602031406,452,0.01366124488,452,0.007555209566,
451,0.01973002404,451,0.006112504285,451,0.01390354708,451,0.009144322015,
450,0.01936509833,450,0.006286911201,450,0.01412683818,450,0.01089444384,
449,0.01906498149,449,0.006457709242,449,0.01439771056,449,0.01269562263,
448,0.01867356338,448,0.006624106783,448,0.0146231018,448,0.01456854306,
447,0.01842118427,447,0.006744319107,447,0.0149208596,447,0.01657716557,
446,0.01810347661,446,0.006896071602,446,0.01507362071,446,0.01857129112,
445,0.01786758564,445,0.007087001111,445,0.01537053473,445,0.02075938322,
444,0.01765670627,444,0.007254323922,444,0.01558186207,444,0.02288760245,
443,0.01742011495,443,0.007377449423,443,0.01585434191,443,0.02502877079,
442,0.01724344306,442,0.007601834368,442,0.01610329747,442,0.02734964713,
441,0.01711382717,441,0.00774216,441,0.0162851233,441,0.02962301858,
440,0.01691257209,440,0.007964281365,440,0.01646845043,440,0.0318582654,
439,0.01674065366,439,0.00817543827,439,0.01677845418,439,0.03414920717,
438,0.01653042808,438,0.008335079998,438,0.016999593,438,0.03644292057,
437,0.01635167189,437,0.00848174002,437,0.01717048325,437,0.03864855319,
436,0.01618029736,436,0.008744728751,436,0.01739004441,436,0.04080319405,
435,0.01604825817,435,0.008899771608,435,0.01762847975,435,0.0430534035,
434,0.01590055041,434,0.009163118899,434,0.01786780171,434,0.045273792,
433,0.01567358337,433,0.009325399064,433,0.01799648255,433,0.04735547304,
432,0.01549203973,432,0.009541584179,432,0.0182180535,432,0.04945742339,
431,0.01533902436,431,0.00978562329,431,0.01833260804,431,0.05158239231,
430,0.01516035479,430,0.0100009786,430,0.01847469062,430,0.05371362343,
429,0.01497985702,429,0.01020793337,429,0.01853501052,429,0.05582671985,
428,0.01470749732,428,0.01043482032,428,0.01863643527,428,0.05786182731,
427,0.01455887966,427,0.01062924787,427,0.01868485846,427,0.05997661874,
426,0.01437809691,426,0.01089239959,426,0.01872469485,426,0.06218616664,
425,0.01411303971,425,0.0111947814,425,0.0187645331,425,0.06443505734,
424,0.01381366979,424,0.0114479633,424,0.01880688965,424,0.06670416147,
423,0.01354380231,423,0.01167890243,423,0.01874618046,423,0.06901165098,
422,0.01330535766,422,0.01197113562,422,0.01874928921,422,0.0712235719,
421,0.01292621251,421,0.01222799253,421,0.01861781813,421,0.07356059551,
420,0.01271444,420,0.01260612812,420,0.01868072338,420,0.07594038546,
419,0.01231317502,419,0.01281251479,419,0.0185198281,419,0.07813829184,
418,0.01201216877,418,0.01303351112,418,0.01841753908,418,0.08033735305,
417,0.01166768093,417,0.0132449856,417,0.01841397397,417,0.08252944052,
416,0.01138141844,416,0.01372763235,416,0.01833992638,416,0.08471626788,
415,0.01104613952,415,0.01401659567,415,0.01825803518,415,0.08679451793,
414,0.01059158146,414,0.01419647876,414,0.01817678101,414,0.08866503835,
413,0.01028861199,413,0.01454688795,413,0.01806871779,413,0.09043349326,
412,0.0099354228,412,0.01494877692,412,0.01799739897,412,0.0920618996,
411,0.009566564113,411,0.01529920287,411,0.01788123325,411,0.0935337171,
410,0.009209071286,410,0.01566934213,410,0.01782699302,410,0.09497968107,
409,0.008843733929,409,0.01600399427,409,0.01769294217,409,0.09608618915,
408,0.008563577197,408,0.01636597142,408,0.01757437736,408,0.0971467644,
407,0.008210047148,407,0.01670465805,407,0.01741760969,407,0.09806268662,
406,0.007891256362,406,0.01708652452,406,0.01719727926,406,0.09879041463,
405,0.007619405631,405,0.01755020022,405,0.01703273319,405,0.09951911122,
404,0.007326531224,404,0.0178778898,404,0.0168405287,404,0.1000998393,
403,0.007035932969,403,0.01830196194,403,0.01653322391,403,0.1005803123,
402,0.006751864683,402,0.01873723418,402,0.0162628442,402,0.1009739041,
401,0.006451640278,401,0.01912543736,401,0.0160231702,401,0.1013280675,
400,0.006268736906,400,0.01960321143,400,0.01582905091,400,0.1017669961,
399,0.006057954393,399,0.02006635815,399,0.01543444768,399,0.1021079943,
398,0.0057797716,398,0.0205378402,398,0.01518549956,398,0.1023969129,
397,0.005563746206,397,0.02100081556,397,0.01489548944,397,0.1027041376,
396,0.005502553657,396,0.02156884596,396,0.01460567396,396,0.1029321626,
395,0.005201959517,395,0.02203450166,395,0.01425165962,395,0.1031279787,
394,0.005116431974,394,0.02253749035,394,0.0139848087,394,0.1033679247,
393,0.005032413639,393,0.0230919458,393,0.01359468047,393,0.1035404131,
392,0.005022567231,392,0.02369555086,392,0.0134089319,392,0.1036142781,
391,0.004927335307,391,0.02425137907,391,0.01308086142,391,0.1037816033,
390,0.004966347478,390,0.02487992495,390,0.01288746577,390,0.1038566977,
389,0.004953020252,389,0.02541506663,389,0.01248433534,389,0.1039097682,
388,0.005036656279,388,0.02607550845,388,0.01224505901,388,0.1039924771,
387,0.005156010855,387,0.02666587941,387,0.01200642064,387,0.1041709706,
386,0.005299295764,386,0.02742188424,386,0.01177857909,386,0.1042684093,
385,0.005461265333,385,0.02801353671,385,0.01145325229,385,0.1044619977,
384,0.005770616699,384,0.0287661124,384,0.01128486171,384,0.1046249047,
383,0.00601477595,383,0.02943103574,383,0.01090219431,383,0.1050379723,
382,0.006322473288,382,0.03029777855,382,0.01071016397,382,0.1054825857,
381,0.006770768669,381,0.03113085032,381,0.01045643073,381,0.1061450243,
380,0.007162970025,380,0.03183297068,380,0.0101365177,380,0.1067963913,
379,0.007489021868,379,0.03258036822,379,0.009760842659,379,0.107459344,
378,0.008070756681,378,0.03347338736,378,0.009499963373,378,0.1084473357,
377,0.008588131517,377,0.03428868577,377,0.0092433393,377,0.1093085408,
376,0.009192042984,376,0.03520684317,376,0.008911899291,376,0.1105238572,
375,0.009958810173,375,0.0361693427,375,0.008685595356,375,0.1117270142,
374,0.01068222616,374,0.03705413267,374,0.00853060279,374,0.1130876169,
373,0.01148355193,373,0.0379047133,373,0.008215481415,373,0.1144348383,
372,0.01247684937,372,0.03904594108,372,0.00808536727,372,0.1157419458,
371,0.01348051429,371,0.03999014571,371,0.007873463444,371,0.1170519888,
370,0.01444478054,370,0.04089197889,370,0.007632024586,370,0.1183190122,
369,0.01558398176,369,0.04183935374,369,0.007428478915,369,0.1194619834,
368,0.01678660698,368,0.04290876538,368,0.007198367268,368,0.1203810945,
367,0.01805589907,367,0.04400470853,367,0.007059032563,367,0.121026881,
366,0.01922161691,366,0.04505047202,366,0.0068078693,366,0.1213728338,
365,0.02062029764,365,0.04610195011,365,0.006669763941,365,0.1212189198,
364,0.02211985923,364,0.04737363383,364,0.006695183925,364,0.1208636835,
363,0.02351305634,363,0.04846302792,363,0.006448329892,363,0.1198731065,
362,0.0248435773,362,0.04961914569,362,0.006401250605,362,0.1183445752,
361,0.02600591443,361,0.05062861368,361,0.006219707895,361,0.1163164079,
360,0.0273559615,360,0.05202235281,360,0.006071525626,360,0.1138147488,
359,0.02836461179,359,0.05310538039,359,0.006059424486,359,0.1109776348,
358,0.02927399985,358,0.05439398065,358,0.005925492849,358,0.1077036187,
357,0.03004662879,357,0.05554489419,357,0.005724712741,357,0.1042393818,
356,0.03073335439,356,0.05689346418,356,0.005786356051,356,0.1009076387,
355,0.03117654473,355,0.05810719356,355,0.005720384885,355,0.09715314209,
354,0.03121462092,354,0.05930814892,354,0.005601058248,354,0.0936184302,
353,0.03137764707,353,0.06068811938,353,0.00554290181,353,0.09024810046,
352,0.0312625207,352,0.06208545342,352,0.005522268359,352,0.08703543991,
351,0.03123389743,351,0.06348732114,351,0.005512069911,351,0.08386223018,
350,0.03087238222,350,0.06481658667,350,0.005433375016,350,0.08079085499,
349,0.02815708145,349,0.06367003173,349,0.00552992383,349,0.07662758976,
348,0.0313933976,348,0.06829808652,348,0.006539165508,348,0.07367485762,
347,0.02920048684,347,0.06704005599,347,0.00494987797,347,0.07043262571,
346,0.02957294323,346,0.06978970021,346,0.006145637017,346,0.06810363382,
345,0.02992627956,345,0.07170043886,345,0.00578884827,345,0.06503870338,
344,0.02910741605,344,0.07185939699,344,0.005279066972,344,0.06171908602,
343,0.02964266762,343,0.074810341,343,0.005583778489,343,0.05900152028,
342,0.03007706068,342,0.0760666877,342,0.005510969087,342,0.0556307435,
341,0.02998238616,341,0.07753950357,341,0.004996459465,341,0.05273791403,
340,0.03144922107,340,0.07971017808,340,0.005264053121,340,0.05004983023,
339,0.03197388351,339,0.08134150505,339,0.00511250319,339,0.04732678086,
338,0.03347101063,338,0.08298624307,338,0.005068187602,338,0.04499643296,
337,0.03481841832,337,0.08505278081,337,0.005091052037,337,0.04281191155,
336,0.03667202592,336,0.08704290539,336,0.005086128134,336,0.04118460044,
335,0.03856410086,335,0.08869942278,335,0.005103519186,335,0.03926254064,
334,0.04065085948,334,0.09070850164,334,0.004572513979,334,0.03805891424,
333,0.04341799766,333,0.09222489595,333,0.004762816709,333,0.03704006597,
332,0.04661376029,332,0.09461356699,332,0.004655736499,332,0.03717762977,
331,0.04986689612,331,0.09626566619,331,0.004827753175,331,0.03698337823,
330,0.0533743836,330,0.09824411571,330,0.004288300406,330,0.03746595234,
329,0.05743328854,329,0.1004137248,329,0.004474713001,329,0.03853369132,
328,0.06151017174,328,0.1025573164,328,0.004301162902,328,0.03976470605,
327,0.06612047553,327,0.1041998267,327,0.00441594841,327,0.04124653712,
326,0.07074505836,326,0.106233418,326,0.003845457686,326,0.04273384437,
325,0.0758690089,325,0.1080501676,325,0.003962604329,325,0.04452406242,
324,0.08105956763,324,0.1104487777,324,0.00421019271,324,0.04636881128,
323,0.08578974009,323,0.1121874526,323,0.004125487525,323,0.0476554893,
322,0.09099961072,322,0.1147735491,322,0.004215315916,322,0.04900597036,
321,0.09540121257,321,0.1164459214,321,0.003635351313,321,0.04915343598,
320,0.1000216156,320,0.1185947433,320,0.00371492235,320,0.04938044399,
319,0.1039460674,319,0.1205198839,319,0.00348888291,319,0.04910758138,
318,0.1072714403,318,0.122434482,318,0.003346246202,318,0.04829106107,
317,0.1101514399,317,0.1246940941,317,0.003102408955,317,0.04737776145,
316,0.1122763082,316,0.1267596781,316,0.003206472844,316,0.04611049965,
315,0.1135748103,315,0.1289318502,315,0.003103191033,315,0.04492201656,
314,0.1139741391,314,0.1311368495,314,0.00343776634,314,0.04363976419,
313,0.1137134656,313,0.1330433339,313,0.00286550913,313,0.04232747108,
312,0.112843588,312,0.1349379569,312,0.002782290103,312,0.04089945927,
311,0.1116866767,311,0.1377050281,311,0.002639989369,311,0.04021440074,
310,0.1100943014,310,0.139597103,310,0.002777053509,310,0.03893658146,
309,0.108327724,309,0.1422931701,309,0.002766085789,309,0.03790516779,
308,0.1065011844,308,0.1442984492,308,0.002715158276,308,0.03678825498,
307,0.1046475694,307,0.1469163895,307,0.00272213947,307,0.03543900326,
306,0.1029898822,306,0.1493532956,306,0.002406205051,306,0.03386976197,
305,0.1014965773,305,0.152122885,305,0.002478443785,305,0.03245130926,
304,0.09998860955,304,0.1549236029,304,0.002362321131,304,0.03083950281,
303,0.09901737422,303,0.1580952108,303,0.002666060114,303,0.02934340015,
302,0.09748249501,302,0.1614071131,302,0.002708021319,302,0.02753569372,
301,0.09638121724,301,0.16458489,301,0.00270627602,301,0.02549332194,
300,0.09537219256,300,0.1686098427,300,0.003019665601,300,0.02403371222,
299,0.09434118867,299,0.1722373515,299,0.003092762548,299,0.02192386799,
298,0.09369916469,298,0.1770577282,298,0.003155259183,298,0.02071295306,
297,0.09335309267,297,0.1817372143,297,0.003246243345,297,0.01915703528,
296,0.09309054911,296,0.1873846501,296,0.003748107236,296,0.01804505102,
295,0.09302326292,295,0.1931506246,295,0.004103562329,295,0.01681257226,
294,0.09346912801,294,0.1996670961,294,0.004394479562,294,0.0158295352,
293,0.09394630045,293,0.2065182477,293,0.004844610114,293,0.01472661644,
292,0.09523849934,292,0.2138464004,292,0.00520871859,292,0.01421282161,
291,0.09654720128,291,0.2208451331,291,0.005726443604,291,0.01287522633,
290,0.09888044745,290,0.2282536626,290,0.006222806871,290,0.01265646983,
289,0.101136297,289,0.2346618176,289,0.006664375309,289,0.01159230247,
288,0.1044584736,288,0.2408450991,288,0.007493841462,288,0.01116229687,
287,0.1082964987,287,0.2459005564,287,0.008093779907,287,0.01043529715,
286,0.1125085205,286,0.2502354085,286,0.008690850809,286,0.009771671146,
285,0.1174914688,285,0.2537905872,285,0.009592445567,285,0.009304770268,
284,0.1229205281,284,0.2562465072,284,0.0101829432,284,0.008509510197,
283,0.1292075068,283,0.2590548694,283,0.01152616087,283,0.008736118674,
282,0.1356990635,282,0.2603351772,282,0.01277639065,282,0.007880818099,
281,0.1430171579,281,0.2617782652,281,0.01439605094,281,0.00815093331,
280,0.151044324,280,0.2621135414,280,0.01613070071,280,0.00773475552,
279,0.1597295851,279,0.2624853253,279,0.01802759245,279,0.007733095437,
278,0.1693416834,278,0.2617405951,278,0.02047341689,278,0.007639954332,
277,0.1797405779,277,0.2610744238,277,0.02311971039,277,0.007965731435,
276,0.1907319278,276,0.2594603598,276,0.02629090101,276,0.007838644087,
275,0.203216821,275,0.2579825819,275,0.02994921617,275,0.008292096667,
274,0.2164669186,274,0.2564636469,274,0.03432602808,274,0.008396091871,
273,0.2304982394,273,0.2546866238,273,0.03861213848,273,0.008552568033,
272,0.2449507415,272,0.2532667816,272,0.04314047843,272,0.008899111301,
271,0.2602740824,271,0.2521855235,271,0.04821394011,271,0.01010024361,
270,0.274639219,270,0.2508572638,270,0.05294062942,270,0.01101637539,
269,0.2886680961,269,0.2504581213,269,0.05829517171,269,0.01308851782,
268,0.3000262678,268,0.2498206496,268,0.06298409402,268,0.01554792188,
267,0.3099893928,267,0.2505595684,267,0.06864336878,267,0.01956126466,
266,0.3171910048,266,0.2514841259,266,0.07354590297,266,0.02474661171,
265,0.3223496079,265,0.2528737485,265,0.07850814611,265,0.03204421699,
264,0.3254771531,264,0.2551461458,264,0.08364826441,264,0.04298809543,
263,0.3270386755,263,0.2569316626,263,0.08799251169,263,0.05738696083,
262,0.3280859292,262,0.2601558864,262,0.09317346662,262,0.07843796164,
261,0.3281493783,261,0.2629597187,261,0.09741517156,261,0.1044581756,
260,0.3279534876,260,0.2672234178,260,0.1022012308,260,0.1375823766,
259,0.3274770677,259,0.2714972794,259,0.1065580845,259,0.1767527759,
258,0.327018708,258,0.2768485844,258,0.1108102873,258,0.2192098349,
257,0.3256993294,257,0.2819592059,257,0.1147351488,257,0.2556849122,
256,0.3248309493,256,0.2882308364,256,0.1184789389,256,0.2764130831,
255,0.3241151869,255,0.2944986224,255,0.1216662675,255,0.2793002725,
254,0.3239716291,254,0.3013503253,254,0.1246618107,254,0.2759346664,
253,0.3254286051,253,0.3095881939,253,0.1274682432,253,0.2748217583,
252,0.3274704516,252,0.3180021048,252,0.1292472035,252,0.2766224444,
251,0.3312751353,251,0.3276954591,251,0.1308110952,251,0.2812536657,
250,0.3363864422,250,0.3379332125,250,0.131691888,250,0.2866838574,
249,0.3422725499,249,0.3493007421,249,0.1322508901,249,0.2910515964,
248,0.3487091064,248,0.361576885,248,0.1319636852,248,0.2894904315,
247,0.3558201492,247,0.3749715686,247,0.1312299967,247,0.2813101709,
246,0.3632207811,246,0.3892403245,246,0.1299936175,246,0.2680913806,
245,0.371419549,245,0.4048519731,245,0.1284325868,245,0.2532658577,
244,0.3796442747,244,0.420401603,244,0.1263075024,244,0.2387092412,
243,0.3884055018,243,0.4371694326,243,0.1238097847,243,0.226283133,
242,0.3970727921,242,0.4531802535,242,0.1212448925,242,0.215633288,
241,0.4062722623,241,0.4702565372,241,0.1185292378,241,0.2074472159,
240,0.4150555134,240,0.4872539043,240,0.1157794893,240,0.1994463652,
239,0.4232102633,239,0.5041793585,239,0.1127376929,239,0.1919086128,
238,0.4311194718,238,0.5213161707,238,0.1099888161,238,0.1838261485,
237,0.4390983582,237,0.538736701,237,0.1078745872,237,0.1772953719,
236,0.4476608932,236,0.5562750697,236,0.1065241396,236,0.1720144153,
235,0.4580060542,235,0.5745361447,235,0.1062134132,235,0.1698070765,
234,0.4705123901,234,0.5935310721,234,0.1073900238,234,0.1707996279,
233,0.4850369394,233,0.613738656,233,0.1101258919,233,0.1752640903,
232,0.5013574362,232,0.6347760558,232,0.1138771251,232,0.1822617352,
231,0.5191821456,231,0.6560332775,231,0.1185045466,231,0.190617606,
230,0.5371798277,230,0.6772749424,230,0.1235211194,230,0.199116677,
229,0.5552837253,229,0.6975221634,229,0.1287792623,229,0.2073772699,
228,0.5726573467,228,0.7172545195,228,0.134073332,228,0.2150929421,
227,0.5899251699,227,0.7373739481,227,0.1397017986,227,0.222147122,
226,0.6065843105,226,0.7577896118,226,0.14610897,226,0.2298496962,
225,0.6224882603,225,0.7781839967,225,0.1524402499,225,0.2365305573,
224,0.6367602348,224,0.7988530993,224,0.1586223245,224,0.2429038733,
223,0.6503434777,223,0.8193383813,223,0.1644272357,223,0.2481272519,
222,0.6619276404,222,0.8408229351,222,0.1699217856,222,0.2533818185,
221,0.672221303,221,0.8627711535,221,0.1757749021,221,0.2579477429,
220,0.6814900637,220,0.8861968517,220,0.1817876399,220,0.2634379268,
219,0.6895922422,219,0.9119814038,219,0.1892899126,219,0.2681723833,
218,0.6963571906,218,0.939822197,218,0.1981765032,218,0.2731059492,
217,0.7030113339,217,0.9710244536,217,0.2104448825,217,0.2776342928,
216,0.7091435194,216,1.004996419,216,0.2260893881,216,0.282479167,
215,0.7153556943,215,1.042392969,215,0.2458640337,215,0.2880417705,
214,0.7212433815,214,1.082857728,214,0.2685415149,214,0.2949125171,
213,0.7254446745,213,1.12749064,213,0.2920695543,213,0.304703176,
212,0.7274750471,212,1.173317432,212,0.3117348552,212,0.3181439638,
211,0.7262412906,211,1.221805334,211,0.3258529603,211,0.3359198868,
210,0.720736444,210,1.269279122,210,0.3324671388,210,0.3576713502,
209,0.7113698721,209,1.315608621,209,0.3332399726,209,0.3848631084,
208,0.6990661621,208,1.358277082,208,0.3289829195,208,0.4159611464,
207,0.6845488548,207,1.397604585,207,0.3211228549,207,0.4516820014,
206,0.667683959,206,1.429699659,206,0.3103612959,206,0.4882903099,
205,0.6493483782,205,1.455323458,205,0.2973997295,205,0.5238652825,
204,0.6304258704,204,1.472530246,204,0.282564342,204,0.5524913669,
203,0.6114598513,203,1.482902765,203,0.2674770653,203,0.5728340745,
202,0.5943520665,202,1.483661056,202,0.2532125413,202,0.5840952396,
201,0.578455627,201,1.475285411,201,0.2402198166,201,0.5911334157,
200,0.5652153492,200,1.457761168,200,0.2287062407,200,0.596506536,

