RB,,lig,,jug,,pn,,
Wavelength (nm),Abs,Wavelength (nm),Abs,Wavelength (nm),Abs,Wavelength (nm),Abs,
800,0.002020588843,800,0.003865880892,800,0.002616264159,800,0.00387139176,
799,0.002087977482,799,0.00401182333,799,0.002604779555,799,0.003861937206,
798,0.002060770988,798,0.003960906528,798,0.002525958698,798,0.003935411107,
797,0.00212902436,797,0.003914644942,797,0.002554053441,797,0.003828586778,
796,0.002023449633,796,0.003762102686,796,0.002519136993,796,0.003681974951,
795,0.002097185235,795,0.004026689567,795,0.002515231492,795,0.003779649734,
794,0.002102829749,794,0.003957040142,794,0.002508592326,794,0.003728786018,
793,0.002273109043,793,0.003950378858,793,0.002620248822,793,0.003791478695,
792,0.002076090779,792,0.003927861806,792,0.002442544093,792,0.0035773532,
791,0.002222343581,791,0.003905868623,791,0.002471935237,791,0.003771241754,
790,0.002334837336,790,0.004091802984,790,0.002642828273,790,0.003925458994,
789,0.002264834242,789,0.003877738491,789,0.002600691048,789,0.003750300501,
788,0.002108084271,788,0.003755783895,788,0.00240636128,788,0.003609431442,
787,0.002308708383,787,0.003906782717,787,0.002545148367,787,0.003739464795,
786,0.002208787948,786,0.003862485755,786,0.002593868412,786,0.00370706385,
785,0.002305299276,785,0.00396871753,785,0.002577957464,785,0.003643548116,
784,0.002403862309,784,0.003921096679,784,0.002590144519,784,0.003607212799,
783,0.002281748457,783,0.004013208207,783,0.002435333328,783,0.003651692532,
782,0.002337830141,782,0.003966470715,782,0.002481411677,782,0.003694506129,
781,0.002313444857,781,0.003849166213,781,0.002512159292,781,0.003498355392,
780,0.002420105273,780,0.003986951895,780,0.002640926978,780,0.003605698701,
779,0.002509972313,779,0.003936873749,779,0.002621342428,779,0.003639501985,
778,0.002551944228,778,0.004001007415,778,0.002635301556,778,0.003698578803,
777,0.002415445866,777,0.003993561491,777,0.002488232683,777,0.003499790793,
776,0.002596915234,776,0.004003724549,776,0.002540201182,776,0.003713669255,
775,0.002552647376,775,0.004036513623,775,0.002682390856,775,0.003632610664,
774,0.002654183656,774,0.004083545879,774,0.002672805917,774,0.003662734991,
773,0.002493622014,773,0.004028256983,773,0.002679734025,773,0.003543033032,
772,0.002598894294,772,0.00409830967,772,0.002769368235,772,0.003593535628,
771,0.002593503799,771,0.004121933132,771,0.002771530533,771,0.003557987278,
770,0.002650927985,770,0.003996958025,770,0.002655902412,770,0.003490709467,
769,0.002712006448,769,0.004228437785,769,0.00278479117,769,0.003639789065,
768,0.00273456471,768,0.004200521857,768,0.002748944331,768,0.003518344834,
767,0.002678666264,767,0.004229038954,767,0.00277530821,767,0.003588994034,
766,0.002661319915,766,0.00414819736,766,0.002847868716,766,0.003443245543,
765,0.002705676947,765,0.00411924161,765,0.002840051893,765,0.003419267712,
764,0.002637749771,764,0.004151072353,764,0.002852584934,764,0.003462058259,
763,0.002801986178,763,0.004131262656,763,0.002807848155,763,0.003457439831,
762,0.002731985878,762,0.004164009355,762,0.002881612862,762,0.003462971654,
761,0.002819077577,761,0.004050178453,761,0.00284792087,761,0.003368315753,
760,0.002821396338,760,0.004227522761,760,0.00280709262,760,0.003312126966,
759,0.002840364585,759,0.004134947434,759,0.002909965347,759,0.003359080991,
758,0.002709375694,758,0.004074139055,758,0.002762073884,758,0.003297102638,
757,0.002697211457,757,0.004101889674,757,0.002857665997,757,0.003358715679,
756,0.002887997311,756,0.004115504678,756,0.002928233705,756,0.003370611463,
755,0.002979942132,755,0.004195398651,755,0.002988699591,755,0.003447394352,
754,0.002816393971,754,0.004132987466,754,0.002886016853,754,0.003390856087,
753,0.002883463167,753,0.004246500321,753,0.00289396476,753,0.00331434398,
752,0.002748996485,752,0.004114668351,752,0.002774057677,752,0.003199223429,
751,0.002895319834,751,0.004046546761,751,0.002809229074,751,0.003267942695,
750,0.002825122327,750,0.003975823056,750,0.002831036691,750,0.003280644538,
749,0.002937172772,749,0.004148014821,749,0.00293594785,749,0.003279314376,
748,0.002824470866,748,0.004014645237,748,0.002881248016,748,0.003233959666,
747,0.002900609747,747,0.004103353247,747,0.00285172509,747,0.003192078089,
746,0.002954999218,746,0.004143911414,746,0.003007180057,746,0.003291207831,
745,0.002913431264,745,0.00401623873,745,0.002901313361,745,0.003229265567,
744,0.003072975203,744,0.004157841206,744,0.003027146915,744,0.003355402732,
743,0.003009708365,743,0.004021437839,743,0.002822725102,743,0.003145376919,
742,0.002978456439,742,0.003997532651,742,0.002879319713,742,0.003141126828,
741,0.003018909832,741,0.004085949622,741,0.002876896411,741,0.003194998717,
740,0.002923855558,740,0.004051458556,740,0.002789115766,740,0.003097064327,
739,0.002965424443,739,0.004034736659,739,0.002819285961,739,0.003179222578,
738,0.002970454749,738,0.004088196903,738,0.002881378401,738,0.003133878345,
737,0.002992192283,737,0.00398253696,737,0.002906186506,737,0.003074591514,
736,0.002937589772,736,0.004075053614,736,0.002967535751,736,0.003187254071,
735,0.002895241603,735,0.004049760289,735,0.002927425783,735,0.00312217162,
734,0.002811182989,734,0.003985358402,734,0.00292984955,734,0.003067239886,
733,0.002848806791,733,0.004033665638,733,0.002903893357,733,0.003111429745,
732,0.002704504644,732,0.004030425567,732,0.002793049905,732,0.002999855438,
731,0.002811131068,731,0.004027368966,731,0.002933758777,731,0.003070863429,
730,0.002717841417,730,0.004022039007,730,0.002887658542,730,0.003020317294,
729,0.002679994563,729,0.004060394596,729,0.002957527293,729,0.003048809012,
728,0.002565458417,728,0.003979271278,728,0.002789558843,728,0.002987943823,
727,0.002616889309,727,0.004005135037,727,0.002912936034,727,0.003023680067,
726,0.002608112991,726,0.004018720705,726,0.002874968108,726,0.002999412362,
725,0.00252549001,725,0.003930448089,725,0.002788047772,725,0.002948197071,
724,0.002589076757,724,0.004029067233,724,0.002864831826,724,0.002986562438,
723,0.002542310162,723,0.004039701074,723,0.002930813702,723,0.002940821461,
722,0.002474538749,722,0.004058461171,722,0.002944000997,722,0.003021777142,
721,0.002446995582,721,0.003968847916,721,0.002836638596,721,0.002878147177,
720,0.002392617753,720,0.003980368841,720,0.002908036811,720,0.002971158596,
719,0.002390977927,719,0.003981021699,719,0.002894590143,719,0.002961228369,
718,0.002360134851,718,0.004013208207,718,0.002918539103,718,0.002978169592,
717,0.002327472204,717,0.004066404421,717,0.002951767528,717,0.002947336994,
716,0.002209854778,716,0.003960174974,716,0.00289545022,716,0.002904649125,
715,0.002302124398,715,0.004010648001,715,0.002916558413,715,0.002899020212,
714,0.002227053046,714,0.004005265888,714,0.002910616808,714,0.002919972409,
713,0.002248597331,713,0.004011274781,713,0.002954008989,713,0.002919685794,
712,0.002238241257,712,0.00398420915,712,0.002920128871,712,0.002851021476,
711,0.002129336353,711,0.003978435416,711,0.002851438476,711,0.002835856983,
710,0.002227495424,710,0.004024547059,710,0.002977882978,710,0.002999386285,
709,0.002165522194,709,0.003981465939,709,0.002959065139,709,0.002915229416,
708,0.002139559714,708,0.004012476653,708,0.002916532569,708,0.002884010319,
707,0.002201190917,707,0.00408542715,707,0.00295690191,707,0.002922656713,
706,0.00211729249,706,0.004028832074,706,0.002934983699,706,0.002883384936,
705,0.002107589971,705,0.003976815846,705,0.002930891933,705,0.002802611329,
704,0.002107095672,704,0.00401958311,704,0.002898316598,704,0.002852741396,
703,0.00205830019,703,0.004002731759,703,0.002898212289,703,0.00283603929,
702,0.002073567826,702,0.003998342436,702,0.002958413446,702,0.002829603618,
701,0.002023839625,701,0.004029563628,701,0.002880075481,701,0.002798286499,
700,0.002050107345,700,0.004017440602,700,0.00294379238,700,0.002870850964,
699,0.002018898493,699,0.003961141687,699,0.00283603929,699,0.002787630772,
698,0.002048572991,698,0.003984731622,698,0.00292226579,698,0.002805112628,
697,0.002047506627,697,0.004000484943,697,0.002915177261,697,0.002796957735,
696,0.002030393574,696,0.003994214814,696,0.002892296994,696,0.002779007424,
695,0.002011824632,695,0.004028596915,695,0.002921379637,695,0.002765043871,
694,0.002025634283,694,0.00396404136,694,0.002887814771,694,0.002789532766,
693,0.002040484454,693,0.004009498283,693,0.002884922316,693,0.002766085789,
692,0.002024879912,692,0.003974464722,692,0.002891124226,692,0.002775203902,
691,0.002008677926,691,0.00396759389,691,0.002864128212,691,0.002759546973,
690,0.002026310423,690,0.004011692945,690,0.002813788597,690,0.002700831974,
689,0.002071955008,689,0.004071682692,689,0.002906082431,689,0.002739930991,
688,0.002152176574,688,0.004132961389,688,0.002888179617,688,0.002775047673,
687,0.002051615855,687,0.004042705987,687,0.002861730987,687,0.002724587917,
686,0.002087743254,686,0.004083101638,686,0.002870955272,686,0.002721357858,
685,0.002086052671,685,0.004072309937,685,0.00288711139,685,0.002671763999,
684,0.002127541462,684,0.00411960762,684,0.002867724048,684,0.002718232106,
683,0.002142707352,683,0.004102333914,683,0.002899515443,683,0.002765695099,
682,0.002154309768,682,0.004103588406,682,0.002893678145,682,0.002751288936,
681,0.002156208968,681,0.004102516919,681,0.002871163655,681,0.002718909411,
680,0.002156625036,680,0.004109624773,680,0.002841511043,680,0.002733783331,
679,0.002148534637,679,0.004135104362,679,0.002879267791,679,0.00275339908,
678,0.002188936807,678,0.004162754864,678,0.002871919423,678,0.002727036597,
677,0.002116720192,677,0.004130714107,677,0.002868974814,677,0.002722347854,
676,0.002196299611,676,0.00416740682,676,0.002855894156,676,0.002680697944,
675,0.00220681075,675,0.004163408186,675,0.002848520176,675,0.002706640633,
674,0.0022108173,674,0.004149660934,674,0.002892713994,674,0.002685880987,
673,0.002223384334,673,0.004150262102,673,0.002870095428,673,0.002671659924,
672,0.002207383048,672,0.004147047643,672,0.002799328649,672,0.002627618844,
671,0.002271027304,671,0.004210088402,671,0.002849119483,671,0.002687990898,
670,0.002263273112,670,0.004181154072,670,0.002808160847,670,0.002651292598,
669,0.002309645293,669,0.004235887434,669,0.002818061505,669,0.002622670727,
668,0.002322319197,668,0.004230946768,668,0.002835492138,668,0.002643609652,
667,0.002320002997,667,0.004227287602,667,0.002837628825,667,0.002640640596,
666,0.002312377794,666,0.004225039389,666,0.002866603667,666,0.002651605057,
665,0.002385772299,665,0.004257270135,665,0.002869652351,665,0.002654964803,
664,0.002306444338,664,0.004267412703,664,0.00280852546,664,0.002581238514,
663,0.002401780104,663,0.004367232788,663,0.002846566029,663,0.002634676639,
662,0.002392565599,662,0.004318679683,662,0.002828822006,662,0.002636004705,
661,0.002358573256,661,0.004323699512,661,0.002810349455,661,0.002595118247,
660,0.002386266831,660,0.004308718722,660,0.002787292236,660,0.002592123579,
659,0.002378119854,659,0.004328928422,659,0.002846670104,659,0.002619571518,
658,0.00240951078,658,0.004374632612,658,0.002857144922,658,0.002597696381,
657,0.002374658128,657,0.00437282864,657,0.002825200325,657,0.002601810964,
656,0.002427497879,656,0.004349008668,656,0.002827388933,656,0.002537519205,
655,0.002395272721,655,0.004397538956,655,0.002859281609,655,0.002568765543,
654,0.002409823239,654,0.004368435591,654,0.002860766836,654,0.002565406496,
653,0.002423723461,653,0.004414065741,653,0.002833355684,653,0.002591628814,
652,0.002420339501,652,0.004428161308,652,0.002833746374,652,0.002592826728,
651,0.002443038858,651,0.004454234615,651,0.00289052492,651,0.0025895976,
650,0.002447672421,650,0.004380699247,650,0.002831375459,650,0.002524266252,
649,0.002442934783,649,0.004460903816,649,0.002840338508,649,0.002569364384,
648,0.002472377848,648,0.004391943105,648,0.002784426324,648,0.002516897861,
647,0.002490784042,647,0.00443467265,647,0.002828353085,647,0.002519892063,
646,0.002508019563,646,0.004437706433,646,0.002829317003,646,0.00252278219,
645,0.002563713817,645,0.004473143723,645,0.002838749206,645,0.00253392593,
644,0.002568427008,644,0.004493230488,644,0.002833746374,644,0.00251570018,
643,0.002551032929,643,0.00448849611,643,0.002829265082,643,0.002561812988,
642,0.002544861985,642,0.004533092491,642,0.002832912607,642,0.002539784415,
641,0.00251036277,641,0.004488443956,641,0.002770592691,641,0.002485759323,
640,0.002542856848,640,0.004536048509,640,0.002830593847,640,0.002497787587,
639,0.002598138992,639,0.004556582775,639,0.00281631574,639,0.002527286531,
638,0.002574598417,638,0.004530842882,638,0.002801569179,638,0.002486384241,
637,0.00260629016,637,0.004580833018,637,0.002824757481,637,0.002519579604,
636,0.002553350292,636,0.004546459299,636,0.002830072772,636,0.002524865093,
635,0.002539758338,635,0.004556373693,635,0.002808734076,635,0.002496746136,
634,0.002571135061,634,0.004580440465,634,0.002828379162,634,0.002493622014,
633,0.002566343872,633,0.004601421766,633,0.002815247513,633,0.002438847674,
632,0.002580900211,632,0.004608066753,632,0.002813528059,632,0.002496928442,
631,0.002561995294,631,0.004614790436,631,0.002794665052,631,0.002431402681,
630,0.002603607718,630,0.004614031874,630,0.002841016045,630,0.002494715387,
629,0.00259923283,629,0.004620049149,629,0.002814023057,629,0.00247459067,
628,0.002584363567,628,0.004594645929,628,0.00282217795,628,0.002463864861,
627,0.002568869619,627,0.004586509895,627,0.002788568847,627,0.002452124143,
626,0.002632879652,626,0.004687554203,626,0.002876271028,626,0.002486097859,
625,0.002650250914,625,0.004649875686,625,0.00280644116,625,0.002449702937,
624,0.002639208222,624,0.004636479542,624,0.002820666879,624,0.00240188418,
623,0.002675618744,623,0.004660080187,623,0.002826451091,623,0.002452228218,
622,0.002659731079,622,0.004634622019,622,0.002770410385,622,0.002393528819,
621,0.002761136042,621,0.004731464665,621,0.002869209275,621,0.002437259769,
620,0.002757280599,620,0.004701213911,620,0.002764236182,620,0.002395975403,
619,0.002777027432,619,0.004742560908,619,0.002855581464,619,0.002458137693,
618,0.002815690357,618,0.004707546439,618,0.002837159671,618,0.002440487733,
617,0.002806258854,617,0.004694043659,617,0.002809671918,617,0.002446579281,
616,0.00289182784,616,0.004741068929,616,0.002767388476,616,0.002397303004,
615,0.002915646415,615,0.004762241151,615,0.002810062841,615,0.00240672566,
614,0.00295797037,614,0.004749338608,614,0.002871528501,614,0.002400556579,
613,0.003016928677,613,0.004771636799,613,0.002785859164,613,0.002398292068,
612,0.003100088565,612,0.004820894916,612,0.002811573911,612,0.002449572785,
611,0.003135859966,611,0.004812649917,611,0.00281800935,611,0.002422526013,
610,0.003213305259,610,0.004865551833,610,0.002831297228,610,0.002432521898,
609,0.003277019132,609,0.004831050988,609,0.00285975053,609,0.002473939909,
608,0.003276366973,608,0.004853274673,608,0.002844325034,608,0.002410916612,
607,0.003358793911,607,0.004842463881,607,0.002794951666,607,0.002434630645,
606,0.003491153242,606,0.004912071861,606,0.002872935729,606,0.002467691898,
605,0.003548696171,605,0.00492424611,605,0.002818295965,605,0.002396938624,
604,0.003656469751,604,0.004978130106,604,0.002862304216,604,0.002466207836,
603,0.003726436291,603,0.004954460077,603,0.002893287223,603,0.002447438193,
602,0.003770823823,602,0.005012118723,602,0.002821917413,602,0.002475397894,
601,0.00393475825,601,0.0049800938,601,0.002900870517,601,0.002433016663,
600,0.004046964459,600,0.004988106433,600,0.002809593687,600,0.002417423995,
599,0.004276275169,599,0.005003843922,599,0.002881117864,599,0.002458111616,
598,0.004444296937,598,0.005024583545,598,0.002815247513,598,0.002420157194,
597,0.0046845451,597,0.005070335232,597,0.002840547124,597,0.002429580549,
596,0.004958256613,596,0.005116301123,596,0.002883332781,596,0.002460402437,
595,0.005233869888,595,0.005078454036,595,0.002791434526,595,0.002381659811,
594,0.005625261925,594,0.005130052567,594,0.002873378573,594,0.002404408995,
593,0.00609357655,593,0.005178408232,593,0.002909808885,593,0.002420547651,
592,0.006633569021,592,0.005145611707,592,0.002837628825,592,0.002386683132,
591,0.007322924677,591,0.005224018823,591,0.002930422779,591,0.002463214099,
590,0.008054142818,590,0.005169082433,590,0.00284726941,590,0.002383715939,
589,0.009008696303,589,0.005308231339,589,0.002876271028,589,0.002387125744,
588,0.01016129274,588,0.005333912093,588,0.00289503322,588,0.002427888336,
587,0.01150851138,587,0.005310851615,587,0.002881795401,587,0.002364689484,
586,0.01316284947,586,0.005347696599,586,0.002935322467,586,0.002436660929,
585,0.01507048495,585,0.005423493218,585,0.002946476918,585,0.002444678918,
584,0.01721082628,584,0.005375529174,584,0.002864753595,584,0.002373434836,
583,0.01999728568,583,0.005445432384,583,0.002903163666,583,0.002422864549,
582,0.02313368954,582,0.00553144468,582,0.002902512206,582,0.002373226685,
581,0.02697223239,581,0.005572634749,581,0.002913326956,581,0.002473471221,
580,0.03134503961,580,0.005602736492,580,0.002925002249,580,0.002443845849,
579,0.0365642719,579,0.005578638986,579,0.002910668962,579,0.002380566439,
578,0.04281239584,578,0.00567760691,578,0.002984555438,578,0.00241172337,
577,0.0501158312,577,0.005734286271,577,0.002921457868,577,0.002392878057,
576,0.05867353454,576,0.005826599896,576,0.002986979438,576,0.002462276956,
575,0.06880465895,575,0.005935176276,575,0.003005746286,575,0.002502083313,
574,0.08041612804,574,0.005932578351,574,0.002980124438,574,0.002389572328,
573,0.09419115633,573,0.006026666146,573,0.00300512067,573,0.002493673936,
572,0.1099774092,572,0.006123819388,572,0.003024070989,572,0.002482635202,
571,0.1281837076,571,0.006203401368,571,0.003092866857,571,0.002569130156,
570,0.1491779387,570,0.006333320867,570,0.003060201183,570,0.002550512087,
569,0.1720221788,569,0.006110614166,569,0.002843126655,569,0.002317374572,
568,0.1993926466,568,0.006220311858,568,0.0028352316,568,0.002303087385,
567,0.2297701985,567,0.006425367668,567,0.002930813702,567,0.00238655298,
566,0.2634044588,566,0.006537667941,566,0.00300110667,566,0.002457304625,
565,0.3005520403,565,0.006707881112,565,0.002997222822,565,0.002504921285,
564,0.341098398,564,0.006891495548,564,0.003026964376,564,0.002566994866,
563,0.3843058944,563,0.0069898949,563,0.00312311016,563,0.00263629132,
562,0.430591315,562,0.007258956786,562,0.003205690533,562,0.002695258008,
561,0.4792020023,561,0.007484649774,561,0.003314604983,561,0.00282764947,
560,0.5289209485,560,0.00769227976,560,0.003416397842,560,0.002891384996,
559,0.5794948936,559,0.007927240804,559,0.003455587197,559,0.003000898054,
558,0.6289697289,558,0.008142598905,558,0.003554177005,558,0.003099853871,
557,0.6770808697,557,0.008313626982,557,0.003613503184,557,0.003132340033,
556,0.7221469879,556,0.00849876646,556,0.003698239569,556,0.003257562406,
555,0.763356626,555,0.008747264743,555,0.003832791466,555,0.003330099164,
554,0.7989854217,554,0.008846745826,554,0.003867683001,554,0.003350863699,
553,0.8285142779,553,0.009028835222,553,0.003878443502,553,0.003404709511,
552,0.8513785005,552,0.009176391177,552,0.004003176,552,0.003491361858,
551,0.8669459224,551,0.009331879206,551,0.004109624773,551,0.003602697048,
550,0.8746833801,550,0.009279303253,550,0.004067554139,550,0.003524373285,
549,0.8750926256,549,0.009354731068,549,0.004022770561,549,0.003541910788,
548,0.8684136868,548,0.009372399189,548,0.004120705184,548,0.003551958594,
547,0.8553119302,547,0.009268699214,547,0.004060864914,547,0.003469103482,
546,0.836381197,546,0.009302469902,546,0.004035729449,546,0.003464746056,
545,0.8125929236,545,0.009274754673,545,0.004042888526,545,0.003430225886,
544,0.7850700617,544,0.009229060262,544,0.004082553089,544,0.003368811449,
543,0.7543597221,543,0.009186173789,543,0.004042862449,543,0.003394012805,
542,0.7218936086,542,0.009120821021,542,0.004026245326,542,0.00335295056,
541,0.6878035069,541,0.008952618577,541,0.003972008824,541,0.003225040622,
540,0.6531360149,540,0.008863337338,540,0.003903073724,540,0.003151034936,
539,0.6187251806,539,0.008788628504,539,0.003928567283,539,0.003143786453,
538,0.5848050714,538,0.008672153577,538,0.003921383992,538,0.003096829634,
537,0.5522485375,537,0.008675164543,537,0.003886070102,537,0.003089112695,
536,0.5209785104,536,0.008659927174,536,0.003914226778,536,0.003045107471,
535,0.4913946092,535,0.008580553345,535,0.003894088557,535,0.002965059597,
534,0.4636589587,534,0.008488022722,534,0.003874264657,534,0.002962687984,
533,0.437895,533,0.008467090316,533,0.003817540361,533,0.002874030033,
532,0.414367944,532,0.008397596888,532,0.003856191412,532,0.002891723765,
531,0.3926430047,531,0.008330963552,531,0.003868127009,531,0.002820328111,
530,0.3732334077,530,0.008395537734,530,0.0039311531,530,0.00283434568,
529,0.3559320867,529,0.008369781077,529,0.003922742326,529,0.002780492418,
528,0.3406319916,528,0.008313125931,528,0.003923943732,528,0.002777991351,
527,0.3275177777,527,0.008367854171,527,0.003965791781,527,0.002757488983,
526,0.3162936568,526,0.008305553347,526,0.003939773422,526,0.002685985295,
525,0.3070009947,525,0.008350279182,525,0.00401822431,525,0.002710573841,
524,0.2995599806,524,0.008336610161,524,0.004045658279,524,0.002725473605,
523,0.29371503,523,0.008396726102,523,0.004085505847,523,0.002677311888,
522,0.2894816399,522,0.008467380889,522,0.004174515605,522,0.002688094974,
521,0.2865863442,521,0.008487072773,521,0.004217668436,521,0.002754388843,
520,0.2849026918,520,0.008550297469,520,0.004279359709,520,0.002685307991,
519,0.2840711474,519,0.008607934229,519,0.004361559171,519,0.002747199032,
518,0.2839594781,518,0.008626549505,518,0.004422852304,518,0.002675280208,
517,0.2843541503,517,0.008716759272,517,0.004499455448,517,0.002681297017,
516,0.2847715616,516,0.008763429709,516,0.004537643865,516,0.002739514224,
515,0.2851303518,515,0.008855702356,515,0.00470150169,515,0.002744880505,
514,0.2849937379,514,0.008895200677,514,0.004790454637,514,0.002792346291,
513,0.2842076421,513,0.009019399993,513,0.00487730559,513,0.002770905383,
512,0.2824648321,512,0.009014352225,512,0.004912726581,512,0.002807874233,
511,0.2797455192,511,0.0091000963,511,0.004989782348,511,0.002776011592,
510,0.2758357227,510,0.009148419835,510,0.00511263404,510,0.002783722943,
509,0.2706516087,509,0.009190377779,509,0.005241363309,509,0.002766320249,
508,0.2643480301,508,0.009215258062,508,0.005312555004,508,0.002759312512,
507,0.2568947673,507,0.009323627688,507,0.005426716991,507,0.002809958532,
506,0.2483053058,506,0.009311963804,506,0.005511178635,506,0.002735893242,
505,0.2389397919,505,0.009287818335,505,0.005669529084,505,0.002732246416,
504,0.2288501561,504,0.009423187934,504,0.005808261223,504,0.002737612696,
503,0.2183564752,503,0.009396364912,503,0.005930977408,503,0.002754988149,
502,0.2074888796,502,0.009395041503,502,0.006090951152,502,0.002722946927,
501,0.196675241,501,0.009471310303,501,0.0062300805,501,0.002690595575,
500,0.1859579831,500,0.009565532207,500,0.006458103657,500,0.002753242617,
499,0.175341174,499,0.009525549598,499,0.006552357692,499,0.002704973565,
498,0.1651770324,498,0.00958924368,498,0.006696787663,498,0.002673066454,
497,0.1554004401,497,0.009635769762,497,0.006892336998,497,0.002720107557,
496,0.1461159885,496,0.009744905867,496,0.007150338497,496,0.002732038032,
495,0.1374859512,495,0.009790680371,495,0.007332928479,495,0.002700962359,
494,0.1293779761,494,0.009804315865,494,0.007594168652,494,0.002696534153,
493,0.1218812466,493,0.009813397191,493,0.007750619203,493,0.002655850491,
492,0.1149709374,492,0.009914500639,492,0.008033126593,492,0.002674863441,
491,0.1086974144,491,0.009986806661,491,0.008207936771,491,0.002701847814,
490,0.1029301956,490,0.01002876647,490,0.008446159773,490,0.002679890487,
489,0.09773289412,489,0.01012607757,489,0.008737914264,489,0.0027180498,
488,0.09303551167,488,0.01022447087,488,0.008936605416,488,0.002692522947,
487,0.08885341138,487,0.01024159137,487,0.009147891775,487,0.002648271387,
486,0.08507860452,486,0.01038547698,486,0.009435515851,486,0.002704791259,
485,0.08173871785,485,0.01047873124,485,0.009704535827,485,0.00274910056,
484,0.07864040881,484,0.01048318669,484,0.009909866378,484,0.002704374492,
483,0.07589755952,483,0.01056009717,483,0.0101777222,483,0.002732897643,
482,0.0733916983,482,0.01069647353,482,0.01045881677,482,0.002763584955,
481,0.07110198587,481,0.01078615896,481,0.01075030956,481,0.002795941662,
480,0.06892793626,480,0.01088788733,480,0.01102473866,480,0.002769290237,
479,0.06693419069,479,0.01099805534,479,0.01135984156,479,0.00289052492,
478,0.06493224204,478,0.01108156238,478,0.01160144806,478,0.002848468022,
477,0.06299526244,477,0.01114086434,477,0.01188245509,477,0.002864258364,
476,0.06097345427,476,0.01123300567,476,0.01217450574,476,0.002966493135,
475,0.0589957647,475,0.01135327853,475,0.01249467209,475,0.002960003447,
474,0.05709438026,474,0.01144139841,474,0.01278036274,474,0.003051885171,
473,0.05500879139,473,0.01152209379,473,0.0131331794,473,0.003042474622,
472,0.0531007871,472,0.01161604468,472,0.01348160859,472,0.003224988468,
471,0.05097636953,471,0.01170645189,471,0.01375044882,471,0.003316065529,
470,0.0489898026,470,0.01187138818,470,0.01416911837,470,0.003467094386,
469,0.04695032537,469,0.01199199818,469,0.01449686196,469,0.003540710313,
468,0.04494300112,468,0.01196868718,468,0.01479429193,468,0.003711867612,
467,0.04309139401,467,0.01221047342,467,0.01526359562,467,0.003906678408,
466,0.04126000032,466,0.01226276625,466,0.01566612162,466,0.004153947346,
465,0.03948364034,465,0.01234345417,465,0.01596142724,465,0.00441234,
464,0.03787435219,464,0.01246419549,464,0.01633705013,464,0.004753107205,
463,0.03635380045,463,0.01260724664,463,0.01670643315,463,0.005063787568,
462,0.03493971005,462,0.01271579973,462,0.01709724031,462,0.005508897826,
461,0.03364263475,461,0.01286301389,461,0.0174716115,461,0.006003831048,
460,0.03243703023,460,0.01292149257,460,0.01784379594,460,0.006493994966,
459,0.03138521686,459,0.01305194385,459,0.01819570363,459,0.007110577077,
458,0.03033092059,458,0.01317333523,458,0.01856956258,458,0.0077171796,
457,0.02947846241,457,0.0132671902,457,0.01892819628,457,0.008536754176,
456,0.02871046588,456,0.01347947307,456,0.01929351315,456,0.009352562018,
455,0.02803998999,455,0.01358976588,455,0.01956906356,455,0.01025897823,
454,0.02739538625,454,0.01369193941,454,0.01980224997,454,0.01120306831,
453,0.02680710703,453,0.01377519127,453,0.02012201771,453,0.01225994341,
452,0.02632588334,452,0.01395502873,452,0.02042289265,452,0.01341969147,
451,0.02598909475,451,0.01411806699,451,0.02075148188,451,0.01467014384,
450,0.02565443516,450,0.01428432204,450,0.02100312524,450,0.01600966044,
449,0.02529668063,449,0.01436420996,449,0.02118000202,449,0.01734890416,
448,0.02498923056,448,0.01454892196,448,0.02144467644,448,0.0187872909,
447,0.02469679527,447,0.01467145607,447,0.02170461416,447,0.02029997297,
446,0.02451092005,446,0.01493291557,446,0.02197023667,446,0.02191294916,
445,0.02433741838,445,0.01507332642,445,0.02222158015,445,0.02356752008,
444,0.02414748445,444,0.01519909129,444,0.0225066822,444,0.02523308247,
443,0.02390834317,443,0.01532633975,443,0.02266009152,443,0.02683439478,
442,0.02373746037,442,0.01551814191,442,0.02291243523,442,0.02859363891,
441,0.02364243753,441,0.0157375671,441,0.02317336202,441,0.03041312099,
440,0.02344807982,440,0.01588683017,440,0.02336817048,440,0.03202718869,
439,0.02338573523,439,0.01609811373,439,0.02363358065,439,0.03383735567,
438,0.02322628163,438,0.01632245444,438,0.02393703535,438,0.03565313295,
437,0.02305326425,437,0.0164157562,437,0.02411418222,437,0.03736347705,
436,0.02288904972,436,0.01668827608,436,0.0243202541,436,0.03897503391,
435,0.02278054319,435,0.01692645997,435,0.02461416274,435,0.04072571173,
434,0.0226588361,434,0.01712136716,434,0.02478215657,434,0.0423871465,
433,0.02247285098,433,0.01727054082,433,0.02493244968,433,0.04402997717,
432,0.02238914184,432,0.01748936996,432,0.02511471882,432,0.04572163895,
431,0.02216376923,431,0.01768738776,431,0.02530568093,431,0.04735264555,
430,0.02199735679,430,0.01788911037,430,0.02537252754,430,0.04885606468,
429,0.02182580903,429,0.0181639865,429,0.02548854612,429,0.05049321055,
428,0.02172777429,428,0.01834899932,428,0.02556428872,428,0.05218453705,
427,0.02156008594,427,0.01862457208,427,0.02566204034,427,0.05386627093,
426,0.02138202079,426,0.01885998249,426,0.02568296716,426,0.05557192862,
425,0.02116459236,425,0.01917186007,425,0.02576673776,425,0.05731163546,
424,0.02091611363,424,0.01934536733,424,0.0256993901,424,0.05893332139,
423,0.02076522075,423,0.01958747767,423,0.0256708283,423,0.0607351549,
422,0.02047661878,422,0.01989565231,422,0.02568096295,422,0.0625050962,
421,0.02022443898,421,0.02017109655,421,0.02569354139,421,0.06427207589,
420,0.01985009946,420,0.02044294402,420,0.02560327761,420,0.06606993079,
419,0.01967040636,419,0.02076429687,419,0.025616128,419,0.06782002747,
418,0.01931879111,418,0.02097916417,418,0.02554520778,418,0.06951908767,
417,0.01907050051,417,0.0213546399,417,0.02549428307,417,0.07126538455,
416,0.01871688291,416,0.02169424668,416,0.02545234002,416,0.07290035486,
415,0.01847123355,415,0.02200081572,415,0.02544251271,415,0.07451642305,
414,0.01815759018,414,0.02224067971,414,0.02529731207,414,0.07589894533,
413,0.01780792512,413,0.02255393192,413,0.02526202612,413,0.07729169726,
412,0.01755990274,412,0.02303582244,412,0.02530227788,412,0.07863898575,
411,0.01725963131,411,0.02332236245,411,0.02513422072,411,0.07977213711,
410,0.01696594618,410,0.0236704275,410,0.02503982186,410,0.0808192268,
409,0.01668184623,409,0.02403592691,409,0.02498174459,409,0.08180124313,
408,0.0163424518,408,0.02445179224,408,0.02478662319,408,0.0825470686,
407,0.01615958102,407,0.02477741428,407,0.02473954111,407,0.08329194784,
406,0.01577887684,406,0.02517676353,406,0.02448791452,406,0.08396442235,
405,0.01557601336,405,0.02557969093,405,0.02440622449,405,0.08450568467,
404,0.01525608823,404,0.02605239116,404,0.0241820775,404,0.08493312448,
403,0.01509744674,403,0.02652833052,403,0.02409576625,403,0.08543220162,
402,0.01483411994,402,0.02693617903,402,0.0238163732,402,0.08577756584,
401,0.01457684208,401,0.02729875967,401,0.02349529415,401,0.08606633544,
400,0.01440319605,400,0.02778638899,400,0.02331097238,400,0.08632365614,
399,0.01420123968,399,0.02828580886,399,0.02306639589,399,0.08666492999,
398,0.01403629966,398,0.02877092548,398,0.02278894559,398,0.08690267801,
397,0.0138761783,397,0.02920693718,397,0.02252947539,397,0.08721421659,
396,0.01374705601,396,0.02975464985,396,0.02224266715,396,0.08747107536,
395,0.0135577172,395,0.030271383,395,0.02194878086,395,0.08756373078,
394,0.01354294829,394,0.03093075193,394,0.02182752453,394,0.08782444149,
393,0.01342649944,393,0.0314619951,393,0.0214569699,393,0.08797387779,
392,0.0133739328,392,0.03205377609,392,0.02127500623,392,0.08811489493,
391,0.01334600989,391,0.03264117241,391,0.02096115239,391,0.08816087246,
390,0.01334520895,390,0.03318647295,390,0.02071526088,390,0.08831603825,
389,0.01331702154,389,0.03381206095,389,0.02043979615,389,0.08835144341,
388,0.01339155156,388,0.03444832936,388,0.02020168491,388,0.08845836669,
387,0.0136097176,387,0.03513380513,387,0.01991958171,387,0.08853986859,
386,0.01365643647,386,0.03585086763,386,0.01972438954,386,0.08861763775,
385,0.01393610332,385,0.03648616374,385,0.01950727403,385,0.08888111264,
384,0.0140920477,384,0.03724807873,384,0.01926539652,384,0.08906275034,
383,0.01432996243,383,0.03800152615,383,0.01900710352,383,0.08927962184,
382,0.01449852157,382,0.0387374945,382,0.01868396625,382,0.08961050212,
381,0.01494992897,381,0.03953884169,381,0.01846466959,381,0.09008418024,
380,0.015414197,380,0.0402989462,380,0.01821314171,380,0.09069379419,
379,0.01585764438,379,0.04125422239,379,0.01800840907,379,0.09137796611,
378,0.01623771898,378,0.04200413823,378,0.01771634631,378,0.09196729213,
377,0.01696182787,377,0.04298195243,377,0.01753195375,377,0.09297095984,
376,0.01744584925,376,0.04384160042,376,0.01733958349,376,0.09381750971,
375,0.01813877746,375,0.04475750029,375,0.01709166728,375,0.09467981011,
374,0.01882359572,374,0.04572175071,374,0.01684276387,374,0.09561114758,
373,0.01957634836,373,0.04668662325,373,0.01660575345,373,0.09666571021,
372,0.02049295418,372,0.04774912447,372,0.01644645818,372,0.09783791006,
371,0.02147997916,371,0.04877055809,371,0.01621791534,371,0.09878735989,
370,0.02247050591,370,0.04984178022,370,0.01612481661,370,0.09990831465,
369,0.02355839312,369,0.05077823251,369,0.01591061987,369,0.1007474884,
368,0.02468002588,368,0.05183383077,368,0.01575987227,368,0.1014383063,
367,0.02586291544,367,0.05299996585,367,0.01569797844,367,0.1019637287,
366,0.02714960091,366,0.054112643,366,0.01548718382,366,0.102418609,
365,0.02842062712,365,0.0552463457,365,0.01551162265,365,0.1023779437,
364,0.02963629365,364,0.05634326115,364,0.01527383737,364,0.1018923745,
363,0.03090445697,363,0.05750027299,363,0.01516432222,363,0.1011681855,
362,0.03217881173,362,0.0587259829,362,0.01505204756,362,0.1002008989,
361,0.03338934854,361,0.05986298621,361,0.0149456691,361,0.09871775657,
360,0.03457215428,360,0.06111770868,360,0.01499872096,360,0.09679977596,
359,0.03557558358,359,0.06239175797,359,0.01486449596,359,0.09466072172,
358,0.03651527688,358,0.06375612319,358,0.01485029887,358,0.09237229824,
357,0.03720898926,357,0.06474230438,357,0.01472637523,357,0.0896603018,
356,0.0378517285,356,0.06614390016,356,0.01465062518,356,0.08702715486,
355,0.03822297603,355,0.06739872694,355,0.01452598255,355,0.08426241577,
354,0.03851366416,354,0.06880408525,354,0.01455430221,354,0.08176258951,
353,0.03874912485,353,0.07024145126,353,0.01453754585,353,0.07925503701,
352,0.03858851641,352,0.07138503343,352,0.01436303277,352,0.07655224949,
351,0.03853388876,351,0.07284561545,351,0.01441579964,351,0.07421597093,
350,0.03840957955,350,0.07422340661,350,0.01434055809,350,0.07189146429,
349,0.04055067152,349,0.07700181007,349,0.01363127399,349,0.07023797929,
348,0.0391189605,348,0.07658142596,348,0.01505113579,348,0.0669208169,
347,0.03791149333,347,0.07842676342,347,0.0139525691,347,0.06421855837,
346,0.04015295208,346,0.08112134784,346,0.01461469568,346,0.06379228085,
345,0.03842909262,345,0.08084513992,345,0.01413531508,345,0.0597640574,
344,0.03921802714,344,0.08339453489,344,0.01395783573,344,0.05854732543,
343,0.03939392045,343,0.08474848419,343,0.01413863152,343,0.05586693063,
342,0.03938128054,342,0.08639417589,342,0.01415502466,342,0.05346776918,
341,0.04070743173,341,0.08896259964,341,0.0142538799,341,0.05154280737,
340,0.04125354066,340,0.08983264863,340,0.01394118182,340,0.04928291589,
339,0.04215469211,339,0.09198699892,339,0.01405683346,339,0.0472089909,
338,0.0438298285,338,0.09412668645,338,0.01415240392,338,0.04550093412,
337,0.04537475854,337,0.09589232504,337,0.01400504634,337,0.04384440556,
336,0.04702327028,336,0.09770326316,336,0.01397395507,336,0.04258859903,
335,0.04849460348,335,0.09939363599,335,0.01370596513,335,0.04123682901,
334,0.05099805444,334,0.1015775204,334,0.01386527438,334,0.04077216983,
333,0.05399933085,333,0.1035500392,333,0.01401991025,333,0.04015343636,
332,0.05679615587,332,0.1056259423,332,0.01414042339,332,0.03990165889,
331,0.05982139334,331,0.1075191572,331,0.01377986744,331,0.04007291794,
330,0.06315240264,330,0.109435074,330,0.01377364155,330,0.04034965113,
329,0.06723324209,329,0.1119130403,329,0.01373078488,329,0.0415767692,
328,0.07079959661,328,0.1133591384,328,0.01337708253,328,0.04200815782,
327,0.07515329868,327,0.1159696579,327,0.01352719218,327,0.04343047366,
326,0.0795058012,326,0.1177571714,326,0.01394270547,326,0.04472716898,
325,0.08431575447,325,0.1199223995,325,0.01363202184,325,0.04640429839,
324,0.08868399262,324,0.1219769791,324,0.01360563189,324,0.04748918489,
323,0.09326981753,323,0.1237728819,323,0.01322819944,323,0.04857620597,
322,0.09766491503,322,0.1262367666,322,0.01363354363,322,0.04978963733,
321,0.1020560563,321,0.1284498125,321,0.01344235893,321,0.05014863238,
320,0.1055999249,320,0.1303114593,320,0.01340185665,320,0.05016138777,
319,0.1094926,319,0.1329160929,319,0.01364559121,319,0.05006626993,
318,0.1125354841,318,0.1351275146,318,0.0135588916,318,0.05007150024,
317,0.1147441566,317,0.1372484863,317,0.0132125346,317,0.04910810292,
316,0.1164968312,316,0.138986215,316,0.01308577042,316,0.04836119339,
315,0.1172145382,315,0.1412494928,315,0.01319193374,315,0.0469590351,
314,0.1179001555,314,0.1435056031,314,0.01319569629,314,0.04637229815,
313,0.1174403429,313,0.1456795335,313,0.01319486927,313,0.04528381675,
312,0.1167307943,312,0.1481514275,312,0.01305413153,312,0.0447469689,
311,0.1155325919,311,0.1503877342,311,0.01315166894,311,0.04382713884,
310,0.1144785658,310,0.1528239101,310,0.01290535927,310,0.04341262206,
309,0.1127786711,309,0.1549412012,309,0.01318694372,309,0.04252235964,
308,0.1117565781,308,0.1576606929,308,0.01292727981,308,0.04154951125,
307,0.1094271541,307,0.160019964,307,0.01302788313,307,0.04087022319,
306,0.1086467505,306,0.1631316394,306,0.01325731538,306,0.04000797123,
305,0.1073406711,305,0.1657023579,305,0.01337417308,305,0.03952072188,
304,0.1061059237,304,0.1689808965,304,0.0131111145,304,0.03768921643,
303,0.1050764844,303,0.1717432737,303,0.01347098127,303,0.0369681567,
302,0.1041535959,302,0.1753188819,302,0.01361431181,302,0.0356259346,
301,0.1032730192,301,0.1788663864,301,0.01386610325,301,0.03450306132,
300,0.1023608372,300,0.1830693632,300,0.01422039047,300,0.03319382295,
299,0.1021249518,299,0.1872990131,299,0.01461836323,299,0.03262490407,
298,0.1012220681,298,0.1918893158,298,0.01473058015,298,0.03150527552,
297,0.1014145017,297,0.1971721947,297,0.01532915607,297,0.03080407158,
296,0.101201646,296,0.2026816607,296,0.01562221907,296,0.02978134528,
295,0.1015034094,295,0.2086069882,295,0.01590908878,295,0.02912695892,
294,0.1015635505,294,0.2152829021,294,0.01643613353,294,0.02879374474,
293,0.102892369,293,0.2227567732,293,0.01696424931,293,0.02831020579,
292,0.1036873683,292,0.2297136188,292,0.01761688851,292,0.02776905708,
291,0.1056118086,291,0.2373990566,291,0.01817939989,291,0.02747391723,
290,0.1075655743,290,0.2445028424,290,0.01900653541,290,0.02734868228,
289,0.1102405861,289,0.2514241338,289,0.01965878531,289,0.02694631368,
288,0.1132916287,288,0.2573524714,288,0.02057782002,288,0.02676561475,
287,0.1166393906,287,0.2628124356,287,0.02111371607,287,0.02655028924,
286,0.1208518222,286,0.2673211396,286,0.02220038325,286,0.02665993385,
285,0.1257714778,285,0.2712691128,285,0.02284962125,285,0.02638229728,
284,0.1309426576,284,0.2740603387,284,0.02390164323,284,0.02627599612,
283,0.1363943219,283,0.2764742672,283,0.02497823536,283,0.02625058591,
282,0.1427447945,282,0.2785062194,282,0.02643990144,282,0.02642455138,
281,0.1494714916,281,0.2798508704,281,0.02799545228,281,0.02640595473,
280,0.1572039574,280,0.2805959582,280,0.02962687053,280,0.02658570558,
279,0.1652655005,279,0.2808745801,279,0.03170463815,279,0.02675041743,
278,0.1742593646,278,0.2806015015,278,0.03396862,278,0.02717013098,
277,0.1837208569,277,0.2799805701,277,0.03698602691,277,0.02757601812,
276,0.1942421794,276,0.2788123488,276,0.03999077156,276,0.02789408155,
275,0.2052843422,275,0.2773711383,275,0.04354701191,275,0.02795034088,
274,0.2176640481,274,0.2760439813,274,0.04733209312,274,0.02832777798,
273,0.2303472161,273,0.2742909789,273,0.05159854516,273,0.02861772105,
272,0.2438084632,272,0.27309677,272,0.05576225743,272,0.02931487374,
271,0.2569768727,271,0.2713224292,271,0.06010695919,271,0.03001020662,
270,0.2699969709,270,0.2705546916,270,0.06492590159,270,0.03105310164,
269,0.2820016146,269,0.2696853876,269,0.06969647855,269,0.03267002851,
268,0.2920973897,268,0.269199729,268,0.07400649041,268,0.03441787139,
267,0.3004654348,267,0.2693486214,267,0.07873933017,267,0.0373493433,
266,0.3064823449,266,0.2697146237,266,0.08319894969,266,0.04132197425,
265,0.3110688627,265,0.2707438767,265,0.08761829883,265,0.04740741104,
264,0.3130511642,264,0.2720508873,264,0.09189861268,264,0.05533942953,
263,0.3142477274,263,0.2738307118,263,0.09583318979,263,0.06685960293,
262,0.3138784468,262,0.2757689059,262,0.09971942008,262,0.08218254894,
261,0.31365183,261,0.2784312963,261,0.1034147292,261,0.1023545489,
260,0.3124833405,260,0.2812097073,260,0.1068622023,260,0.1271585077,
259,0.3118010759,259,0.2849752605,259,0.110528864,259,0.1569127738,
258,0.3105973899,258,0.2889791727,258,0.1141754389,258,0.1894671917,
257,0.3091085255,257,0.2937998474,257,0.117129676,257,0.2164841294,
256,0.3070012629,256,0.2985171676,256,0.1196475327,256,0.2313517481,
255,0.3055003583,255,0.304438442,255,0.1219264194,255,0.2331804037,
254,0.3048115373,254,0.310710609,254,0.1242925152,254,0.2308191508,
253,0.3056138754,253,0.3180276453,253,0.1259648949,253,0.2294781506,
252,0.3072081506,252,0.3256236017,252,0.1271273643,252,0.2310133874,
251,0.3098282218,251,0.334456414,251,0.1281963736,251,0.2338805199,
250,0.3139854968,250,0.3445723355,250,0.1287515908,250,0.238387689,
249,0.318611145,249,0.3555713594,249,0.1286803484,249,0.241050452,
248,0.3245953918,248,0.3680561483,248,0.1280331314,248,0.2398529798,
247,0.3305684924,247,0.3808610439,247,0.127278313,247,0.233303085,
246,0.3377393186,246,0.3954491615,246,0.1260394901,246,0.2234808356,
245,0.3446153104,245,0.4103729725,245,0.1243020967,245,0.2121105492,
244,0.3527504206,244,0.4261267483,244,0.122523196,244,0.2011292279,
243,0.3605695367,243,0.4427052736,243,0.1205046773,243,0.1917944103,
242,0.369207859,242,0.4600138068,242,0.1183592901,242,0.1840913743,
241,0.377815932,241,0.4771426618,241,0.1162037477,241,0.1779924631,
240,0.3866078556,240,0.494910866,240,0.1137940586,240,0.1722889543,
239,0.394626081,239,0.5123229623,239,0.1115657687,239,0.167254135,
238,0.4028092623,238,0.5302129388,238,0.1096321195,238,0.1620093286,
237,0.4112904072,237,0.5484484434,237,0.1086789966,237,0.157859534,
236,0.4201540053,236,0.5676702857,236,0.1082346886,236,0.1552482396,
235,0.4314762354,235,0.5875768065,235,0.1096190885,235,0.1558374166,
234,0.4443591833,234,0.6089282036,234,0.112096563,234,0.1592088193,
233,0.4598066807,233,0.6311091185,233,0.1165608093,233,0.1659532487,
232,0.476750046,232,0.6543233395,232,0.1224603578,232,0.1746237874,
231,0.4949883819,231,0.6778956056,231,0.1290900856,231,0.1848133802,
230,0.5136809945,230,0.7016496062,230,0.1367469132,230,0.1953481734,
229,0.5328091979,229,0.7248081565,229,0.1440282315,229,0.2058014274,
228,0.5509030819,228,0.7474961281,228,0.1516610384,228,0.2155310959,
227,0.5688561797,227,0.7697598934,227,0.1594335735,227,0.2250854224,
226,0.5859203339,226,0.7925560474,226,0.1678420156,226,0.2347151041,
225,0.6026399136,225,0.8154435754,225,0.1762380451,225,0.2440307438,
224,0.6182569265,224,0.838098824,224,0.1846706271,224,0.252335459,
223,0.6322715878,223,0.8611226082,223,0.1921190619,223,0.259627521,
222,0.6456287503,222,0.8847898245,222,0.2000060976,222,0.2669937909,
221,0.6573560834,221,0.9091219306,221,0.2071421146,221,0.2735880017,
220,0.6679315567,220,0.9346373081,220,0.2147796154,220,0.2802831829,
219,0.6772161722,219,0.9621167183,219,0.2231791466,219,0.2854298353,
218,0.6856066585,218,0.9918956757,218,0.2336360514,218,0.2917152643,
217,0.6934581399,217,1.023992658,217,0.2466604114,217,0.2965388298,
216,0.7014071345,216,1.059230566,216,0.2630262077,216,0.3019281328,
215,0.7086257935,215,1.097862244,215,0.2832406163,215,0.3072452545,
214,0.7153102756,214,1.139386654,214,0.3058646917,214,0.31409356,
213,0.7208957672,213,1.184645772,213,0.3286289275,213,0.3221945167,
212,0.7238373756,212,1.231347799,212,0.3479210138,212,0.3323168159,
211,0.7231271863,211,1.279839754,211,0.3612505496,211,0.3462269902,
210,0.7196788788,210,1.328413844,210,0.3681300282,210,0.3638740182,
209,0.7120401263,209,1.374717116,209,0.3684820235,209,0.3846825659,
208,0.701882422,208,1.418574691,208,0.3639466763,208,0.4086272717,
207,0.6892392039,207,1.458067656,207,0.3566998243,207,0.4361181557,
206,0.6747868061,206,1.491101384,206,0.3456624746,206,0.4645476937,
205,0.6592633128,205,1.517564774,205,0.3330231905,205,0.4921087325,
204,0.6429585814,204,1.53664124,204,0.3185409307,204,0.5145297647,
203,0.6262248158,203,1.547107697,203,0.3037129641,203,0.5310989618,
202,0.6105487347,202,1.548778176,202,0.2893949449,202,0.5406639576,
201,0.5971333385,201,1.542684555,201,0.2761963308,201,0.548586309,
200,0.5835274458,200,1.52735579,200,0.2634887397,200,0.5543701053,

