RB,,lig,,jug,,PN,,blank,,
Wavelength (nm),Abs,Wavelength (nm),Abs,Wavelength (nm),Abs,Wavelength (nm),Abs,Wavelength (nm),Abs,
800,0.002844559727,800,-0.002112429822,800,0.01000614371,800,0.005086337682,800,-8.888331649E-5,
799,0.002564755501,799,-0.002200675895,799,0.009831164032,799,0.004874635488,799,-0.0003169873962,
798,0.002533353167,798,-0.002276131883,798,0.009827245027,798,0.00503278058,798,-0.0003601315548,
797,0.002743525896,797,-0.002033080673,797,0.009967762977,797,0.005012589972,797,-0.0001521828235,
796,0.002580743749,796,-0.002062915592,796,0.009921624325,796,0.005056795198,796,-0.0002635944693,
795,0.002647047397,795,-0.002053074073,795,0.009901417419,795,0.005041081924,795,-0.0002312554279,
794,0.00263472856,794,-0.002154571936,794,0.009949116036,794,0.00498627359,794,-0.000204761498,
793,0.002685334068,793,-0.002154262736,793,0.00999170728,793,0.005022174679,793,-0.0001829234971,
792,0.002609284827,792,-0.001988968812,792,0.009892943315,792,0.005157346837,792,-0.0002473476343,
791,0.002714116359,791,-0.00196350948,791,0.0100078918,791,0.005056873895,791,-0.000130497443,
790,0.00252067321,790,-0.002220815979,790,0.009821817279,790,0.005034325644,790,-0.0003719256201,
789,0.002590665361,789,-0.002090120921,789,0.009872579016,789,0.004850238096,789,-0.0002507626195,
788,0.002629988827,788,-0.002078476362,788,0.009960796684,788,0.005029821303,788,-0.000164189536,
787,0.002651553135,787,-0.00200710888,787,0.009951658547,787,0.005065830424,787,-0.0001866494858,
786,0.002615639241,786,-0.002089502523,786,0.009902424179,786,0.005014449358,786,-0.0001351037354,
785,0.00259647239,785,-0.002104650252,785,0.01005014498,785,0.00501764426,785,-0.0002351879812,
784,0.002619858133,784,-0.002081567887,784,0.0099249091,784,0.004898432177,784,-0.0001718488202,
783,0.002580926055,783,-0.002071314491,783,0.009900067002,783,0.004998868797,783,-0.0002974831732,
782,0.002646761015,782,-0.002057093196,782,0.009894055314,782,0.005051950458,782,-0.0001490775903,
781,0.002704791259,781,-0.001984588103,781,0.009991442785,781,0.005055224057,781,-0.0001182827691,
780,0.002622280037,780,-0.002003346803,780,0.009984634817,780,0.005013113841,780,-0.0001552880422,
779,0.002707578475,779,-0.002115881769,779,0.009921968915,779,0.004958597012,779,-0.0002811341546,
778,0.00255131931,778,-0.002049363917,778,0.009882509708,778,0.005015392322,778,-0.0002275815641,
777,0.002593165264,777,-0.002006129595,777,0.009988051839,777,0.005016282666,777,-0.0002416041825,
776,0.002593139187,776,-0.002086359775,776,0.01006450411,776,0.004965744913,776,-0.0001222681021,
775,0.002663715975,775,-0.001955366461,775,0.01009791251,775,0.00500153983,775,-0.0001523380924,
774,0.002625717781,774,-0.002089914866,774,0.009914447553,774,0.004859819077,774,-0.0002555228712,
773,0.00258884253,773,-0.0020041198,773,0.01007973775,773,0.005053783301,773,-0.0001492328447,
772,0.00258608209,772,-0.002089245012,772,0.009959683754,772,0.005003582221,772,-0.0001539424557,
771,0.002557334257,771,-0.002033750759,771,0.009944427758,771,0.005015156232,771,-0.0002634909761,
770,0.002595170401,770,-0.001981186913,770,0.009896094911,770,0.005038960837,770,-0.0002169220097,
769,0.002617227845,769,-0.002001440153,769,0.009987840429,769,0.00514469482,769,-0.0001025998572,
768,0.00250421837,768,-0.001984897302,768,0.009907852858,768,0.005039301235,768,-0.0001157983861,
767,0.002584754024,767,-0.00200221315,767,0.009953089058,767,0.005005703308,767,-0.0001964818221,
766,0.002430829918,766,-0.001970827812,766,0.009968821891,766,0.005003137048,766,-0.0002151626395,
765,0.002585405018,765,-0.002037100028,765,0.009970914572,765,0.00496600708,765,-0.0002193023101,
764,0.002653193893,764,-0.001932482235,764,0.009940270334,764,0.005048885942,764,-0.0002396896889,
763,0.002677181503,763,-0.001894494053,763,0.01006535161,763,0.005053809844,763,-0.0001328264771,
762,0.002696221694,762,-0.001955108717,762,0.01001358777,762,0.005051243119,762,-0.0001140903623,
761,0.002603555797,761,-0.00189593737,761,0.01008450612,761,0.005193838384,761,-6.175952876E-5,
760,0.002716252347,760,-0.001848151209,760,0.01002201159,760,0.005118684378,760,-0.0001019787378,
759,0.002687131288,759,-0.001805773354,759,0.01015066728,759,0.00502853794,759,-8.122256986E-5,
758,0.002611732809,758,-0.001998914871,758,0.01003062073,758,0.00503678713,758,-0.0002057446982,
757,0.002670331625,757,-0.001916143112,757,0.01000299118,757,0.005084661301,757,-4.886995885E-5,
756,0.002720003482,756,-0.001844594139,756,0.01006317884,756,0.005078637507,756,-2.34002855E-5,
755,0.002796723275,755,-0.001825003768,755,0.01008975226,755,0.005096630659,755,-4.312388046E-5,
754,0.002698149066,754,-0.001850883476,754,0.01001011766,754,0.005068161525,754,-6.859240239E-5,
753,0.002759442665,753,-0.001893772394,753,0.01006818656,753,0.005089716054,753,-8.39659624E-5,
752,0.00266158022,752,-0.001927482663,752,0.009909600951,752,0.004986325745,752,-0.0001843207428,
751,0.002729328815,751,-0.001755914767,751,0.01009552833,751,0.005162455142,751,1.488468661E-5,
750,0.002758192364,750,-0.001821240177,750,0.01009995304,750,0.005182730965,750,-6.212587778E-6,
749,0.002683927538,749,-0.001797317876,749,0.01009730343,749,0.005072299391,749,-0.0001464381203,
748,0.002656709868,748,-0.001805257751,748,0.01001872681,748,0.005126411561,748,-6.403716543E-5,
747,0.002700988436,747,-0.001821910497,747,0.01002911106,747,0.005134060048,747,-0.0001347931975,
746,0.002699868288,746,-0.001802886138,746,0.01008000225,746,0.005088066217,746,-2.324497837E-5,
745,0.002711876296,745,-0.001769217779,745,0.01002616994,745,0.005224176217,745,-7.35099311E-5,
744,0.002828483237,744,-0.001722964691,744,0.01022176724,744,0.00521209836,744,3.238455247E-5,
743,0.002763350494,743,-0.001819384284,743,0.01003247499,743,0.005109071732,743,-3.468581417E-5,
742,0.002789636841,742,-0.001722552232,742,0.01014430728,742,0.005152762868,742,-3.81024729E-5,
741,0.002738993149,741,-0.001698779175,741,0.01002240833,741,0.005157215986,741,-2.541927643E-5,
740,0.002725786297,740,-0.001764835091,740,0.01011600904,740,0.005137177184,740,-8.060142864E-5,
739,0.002765174024,739,-0.001755760051,739,0.01003583893,739,0.005150248297,739,-5.61689194E-5,
738,0.00283160992,738,-0.00158046186,738,0.01030873042,738,0.005286220461,738,4.996279313E-5,
737,0.002856259001,737,-0.001633022679,737,0.0101904422,737,0.005240970291,737,0.0001255133102,
736,0.002650875831,736,-0.001746788039,736,0.01008482464,736,0.005222787615,736,-4.250268103E-5,
735,0.002633087803,735,-0.001734154648,735,0.01011272334,735,0.005128218792,735,-6.222540833E-5,
734,0.00269491924,734,-0.001725079026,734,0.01013649069,734,0.005191742443,734,-2.609227158E-5,
733,0.002605248475,733,-0.00162033434,733,0.01015795395,733,0.005209871568,733,3.986457614E-6,
732,0.002667206107,732,-0.00165391108,732,0.01013940573,732,0.005159154534,732,-3.401283175E-5,
731,0.002522313502,731,-0.001733587356,731,0.0100318389,731,0.005087751895,731,-0.000151044238,
730,0.002514137886,730,-0.001703007845,730,0.0100486083,730,0.005082487594,730,-0.0001074134852,
729,0.002492242027,729,-0.001680007321,729,0.01001006458,729,0.00513707241,729,-0.0001213882279,
728,0.00249619945,728,-0.001626008074,728,0.01012295112,728,0.005042103119,728,-0.000116885305,
727,0.002416747389,727,-0.001647257828,727,0.01008699648,727,0.005116824992,727,-0.0001100014342,
726,0.002411775524,726,-0.001615228015,726,0.01008768566,726,0.005092859268,726,-0.0001101567104,
725,0.002446683357,725,-0.001684442512,725,0.01007941924,725,0.00503534684,725,-7.941089279E-5,
724,0.002416695235,724,-0.001587374019,724,0.01000579912,724,0.005095478147,724,-7.014531002E-5,
723,0.002454987727,723,-0.001616414404,723,0.01007698197,723,0.005078192335,723,-8.909036114E-5,
722,0.00239058747,722,-0.0016628335,722,0.01003321633,722,0.005083142314,722,-0.0001535284246,
721,0.002383455634,721,-0.001618529088,721,0.009998700581,721,0.005047053099,721,-0.0001753679098,
720,0.002363778651,720,-0.001662266208,720,0.01004972123,720,0.005063525867,720,-0.0001165229987,
719,0.002362555359,719,-0.001659842208,719,0.01002015732,719,0.005119732115,719,-0.0001399687608,
718,0.002383611863,718,-0.001605118276,718,0.01010117121,718,0.005123687442,718,-0.0001149702512,
717,0.002247088123,717,-0.001714198268,717,0.009965352714,717,0.005045612808,717,-0.0001575134374,
716,0.002259708242,716,-0.001726883813,716,0.01000667363,716,0.005061090458,716,-0.0001646035671,
715,0.002290960401,715,-0.001626008074,715,0.01011436619,715,0.005167851225,715,-0.0001428670366,
714,0.002325103851,714,-0.001589643769,714,0.01005862281,714,0.005136129446,714,-0.0001140386012,
713,0.002268425189,713,-0.001553895418,713,0.01005843654,713,0.005141813308,713,-9.100553143E-5,
712,0.002220392227,712,-0.001630546874,712,0.01009081211,712,0.005103230942,712,-0.0001775932033,
711,0.002174367663,711,-0.001585774939,711,0.01001300476,711,0.005104357377,711,-0.0001776449499,
710,0.002182978904,710,-0.00158871524,710,0.01003469992,710,0.005079240073,710,-0.0002210099192,
709,0.002267098054,709,-0.001528720139,709,0.01016879175,709,0.005125154275,709,-6.605596718E-5,
708,0.002216853667,708,-0.001579739735,708,0.01009584591,708,0.005120151211,708,-0.0001584449928,
707,0.002227209043,707,-0.001544300118,707,0.01006381493,707,0.005152134225,707,-0.0001315325644,
706,0.002101347083,706,-0.001528462279,706,0.01017244905,706,0.005079108756,706,-0.0001894439629,
705,0.002131599467,705,-0.001508135232,705,0.01014385745,705,0.005130785983,705,-6.584890798E-5,
704,0.002161255805,704,-0.001505968394,704,0.01018206868,704,0.005107631441,704,-8.841746603E-5,
703,0.002056739759,703,-0.001596916816,703,0.01003016997,703,0.004986718763,703,-0.0001869082334,
702,0.002075024182,702,-0.001593770343,702,0.01011086907,702,0.005024164915,702,-0.000204502765,
701,0.002134539187,701,-0.001525212079,701,0.01014401577,701,0.005103361793,701,-9.20407474E-5,
700,0.002057519974,700,-0.001513810363,700,0.01014722232,700,0.005100847688,700,-0.000176661677,
699,0.002010446275,699,-0.001499983598,699,0.01013635844,699,0.005063342396,699,-0.000200259441,
698,0.002051407937,698,-0.001489045681,698,0.01014322136,698,0.005070806481,698,-0.000144678459,
697,0.002081526909,697,-0.001441214699,697,0.01016373094,697,0.005075494759,697,-0.0001730391086,
696,0.002117968863,696,-0.00142165774,696,0.01018119417,696,0.005106767174,696,-0.0001150220123,
695,0.002090500435,695,-0.001460512867,695,0.01018641423,695,0.005046084058,695,-0.0001133139885,
694,0.002025686204,694,-0.001527275657,694,0.01013704762,694,0.005040846299,694,-0.0002103502047,
693,0.002066519111,693,-0.001510663307,693,0.01017425116,693,0.005078768358,693,-0.0001480942592,
692,0.002061291132,692,-0.001427230774,692,0.01021898445,692,0.00501764426,692,-0.0001621711999,
691,0.00209349161,691,-0.001387237338,691,0.0102773197,691,0.005025866907,691,-0.0001266157051,
690,0.001999445958,690,-0.001444568741,690,0.01022574306,690,0.004981664941,690,-0.0001913586893,
689,0.002016167855,689,-0.001428933581,689,0.01023618504,689,0.005018586759,689,-0.0001383643394,
688,0.002062929794,688,-0.001397919725,688,0.0102776112,688,0.005039615557,688,-0.0001262534061,
687,0.001992086414,687,-0.001391985104,687,0.01023226231,687,0.005020629615,687,-0.0001475249592,
686,0.002010680502,686,-0.001402822323,686,0.0102504706,686,0.005008086096,686,-0.0001487153058,
685,0.002021941124,685,-0.00139833265,685,0.01027003117,685,0.005020524841,685,-0.000168536717,
684,0.00201055035,684,-0.00134342094,684,0.01032885071,684,0.005065175705,684,-0.0001375362481,
683,0.001958151348,683,-0.001374025713,683,0.01029855199,683,0.005018481985,683,-0.0001081898736,
682,0.001964417985,682,-0.00137387088,682,0.01030356158,682,0.004984964151,682,-0.0001614466601,
681,0.001987275667,681,-0.001324220793,681,0.0103379162,681,0.005016570445,681,-0.00010560191,
680,0.001955603017,680,-0.001349562663,680,0.0103069013,680,0.005007876549,680,-0.0001698822598,
679,0.002009978285,679,-0.001296244911,679,0.01036527567,679,0.005025290884,679,-0.0001720040746,
678,0.001946034143,678,-0.001310800901,678,0.01034918334,678,0.005016675219,678,-9.592280549E-5,
677,0.00197510561,677,-0.001327782171,677,0.01037280448,677,0.005019215401,677,-0.0001023928198,
676,0.001912778476,676,-0.001353330328,676,0.01034178678,676,0.004973574076,676,-0.0001702445297,
675,0.001979916357,675,-0.001312297769,675,0.01040443406,675,0.005030083004,675,-0.0001190073745,
674,0.001929574995,674,-0.001284217811,674,0.01040416863,674,0.005040505901,674,-9.597456665E-5,
673,0.001925570774,673,-0.00127415196,673,0.01041329,673,0.00497566862,673,-0.000134430913,
672,0.001952586696,672,-0.001314413967,672,0.01041477453,672,0.00499399798,672,-0.0001131587123,
671,0.001942003728,671,-0.001281636884,671,0.01042951643,671,0.005053181201,671,-0.0001049290368,
670,0.001891744905,670,-0.001306465128,670,0.01041739993,670,0.004983497784,670,-0.0001589107706,
669,0.001919850591,669,-0.001287727966,669,0.01044900622,669,0.004996040836,669,-0.000136966948,
668,0.00191935664,668,-0.001246740809,668,0.01050177682,668,0.005008531269,668,-0.0001022892975,
667,0.001936829416,667,-0.001216126955,667,0.01050551608,667,0.005024243146,667,-0.0001026516184,
666,0.001924114767,666,-0.001190415816,666,0.01049997285,666,0.005021912511,666,-0.0001244419109,
665,0.001956513152,665,-0.00116960844,665,0.01054065581,665,0.005019608419,665,-9.887314081E-5,
664,0.001977887936,664,-0.001147095929,664,0.01052705012,664,0.005054909736,664,-0.000117040574,
663,0.001953444676,663,-0.001106818439,663,0.01058879588,663,0.005050326698,663,-9.100553143E-5,
662,0.001894110814,662,-0.00116821425,662,0.01053198334,662,0.005005965009,662,-0.0001414178987,
661,0.001953262836,661,-0.001169814961,661,0.01059630234,661,0.004998554476,661,-7.671923231E-5,
660,0.001919694594,660,-0.001120296307,660,0.01063269656,660,0.00502434792,660,-4.695460666E-5,
659,0.001890886924,659,-0.001153705176,659,0.01061304007,659,0.004976218566,659,-9.68027307E-5,
658,0.001870764187,658,-0.001157681108,658,0.0105954539,658,0.005053757224,658,-8.034261555E-5,
657,0.001847314881,657,-0.001098349458,657,0.01061545406,657,0.004989546724,657,-9.271364252E-5,
656,0.00189619069,656,-0.001084096264,656,0.01064574812,656,0.005037467927,656,-8.287896344E-5,
655,0.00187157013,655,-0.00112597656,655,0.01064256486,655,0.005013323389,655,-9.250659787E-5,
654,0.00183798233,654,-0.001082237111,654,0.01066508796,654,0.004999287426,654,-9.307597065E-5,
653,0.001903106575,653,-0.001055226894,653,0.01075282972,653,0.005026992876,653,-0.0001019787378,
652,0.001860807184,652,-0.001074645435,652,0.01068992075,652,0.005061561707,652,-5.45124276E-5,
651,0.001843675389,651,-0.001053522574,651,0.01078443415,651,0.005053155124,651,-7.268171612E-5,
650,0.00181942177,650,-0.001038544811,650,0.01076477114,650,0.005031497218,650,-6.662536907E-5,
649,0.001873909961,649,-0.0009944349295,649,0.01078241784,649,0.00507497089,649,-3.737772931E-5,
648,0.001912076492,648,-0.001005695318,648,0.01081049442,648,0.005070125684,648,-2.816302003E-5,
647,0.001882203389,647,-0.0009526452632,647,0.01085003838,647,0.005071592517,647,-2.324497837E-5,
646,0.001938831527,646,-0.0009077000432,646,0.01087084692,646,0.005079003982,646,9.810893062E-6,
645,0.0018363446,645,-0.0009804365691,645,0.01090086717,645,0.005025343038,645,-3.893074972E-5,
644,0.001863120939,644,-0.000939833757,644,0.01088021602,644,0.005051923916,644,-2.360736107E-5,
643,0.001872324036,643,-0.0008990204078,643,0.01096616965,643,0.005096656736,643,-1.558307304E-5,
642,0.001814924646,642,-0.0009902509628,642,0.01089861058,642,0.005023981445,642,-0.0001064300595,
641,0.001839931938,641,-0.0009186009411,641,0.0109689841,641,0.005004629493,641,-2.650642273E-5,
640,0.001883919234,640,-0.0008443555562,640,0.01105718594,640,0.005083640106,640,2.153766036E-5,
639,0.001877315692,639,-0.000885897316,639,0.01100039203,639,0.005026128609,639,-4.695460666E-5,
638,0.001867982442,638,-0.0008581515867,638,0.01100925915,638,0.005054516718,638,-4.814763543E-6,
637,0.001864992781,637,-0.0008649202646,637,0.0110302344,637,0.005003660917,637,4.271205853E-6,
636,0.001921306713,636,-0.000803843257,636,0.01109834574,636,0.005059335381,636,2.498067806E-5,
635,0.001880487427,635,-0.0007880300982,635,0.01111855544,635,0.005055642687,635,4.470736894E-5,
634,0.001884465222,634,-0.0007499933708,634,0.0111601986,634,0.005105562042,634,9.612523718E-5,
633,0.001869880245,633,-0.0007516471669,633,0.01115818042,633,0.005095949862,633,5.125724056E-5,
632,0.001919304603,632,-0.00068238721,632,0.01117972098,632,0.005126358941,632,0.0001225355663,
631,0.001869854284,631,-0.0007320074365,631,0.01117037144,631,0.005108888727,631,8.569101192E-5,
630,0.001871518092,630,-0.0007847226807,630,0.01116519235,630,0.005067506805,630,3.986457614E-6,
629,0.001905108569,629,-0.0007212052005,629,0.0112135075,629,0.005094639957,629,-3.882877991E-6,
628,0.001920552691,628,-0.0006662077503,628,0.0112417182,628,0.005126778036,628,9.312180919E-5,
627,0.001899206662,627,-0.0007136589265,627,0.01124379039,627,0.005057738163,627,6.870679499E-5,
626,0.001884205267,626,-0.0007060092175,626,0.01125694066,626,0.005092125852,626,5.788488124E-5,
625,0.001945852069,625,-0.0006820770795,625,0.01130744442,625,0.005102000199,625,5.824733307E-5,
624,0.001959763467,624,-0.0006297112559,624,0.01129283197,624,0.005139010493,624,9.483065514E-5,
623,0.001901988522,623,-0.0006226287223,623,0.01126180217,623,0.0051066624,623,7.230552728E-5,
622,0.001982360613,622,-0.0005848360015,622,0.01131916232,622,0.005154387094,622,0.0001272740628,
621,0.001970710931,621,-0.0005703074276,621,0.01135739684,621,0.005123215728,621,0.0001122301692,
620,0.001959607471,620,-0.0005555198295,620,0.01131746173,620,0.005121120717,620,0.0001003197103,
619,0.001948972349,619,-0.0005727375392,619,0.01131762099,619,0.005093985237,619,5.956769746E-5,
618,0.001974507468,618,-0.0005092924112,618,0.01138822176,618,0.005177281797,618,0.0001320385054,
617,0.002036921447,617,-0.0005074308137,617,0.01134844217,617,0.005130497739,617,0.0001135506973,
616,0.002022617497,616,-0.0005055174697,616,0.01136988588,616,0.005127694923,616,0.0001245552558,
615,0.002124394057,615,-0.0004175986978,615,0.01143807638,615,0.00519687729,615,0.0001924789394,
614,0.002073827898,614,-0.0004906759714,614,0.01137174573,614,0.005088720936,614,0.0001074141619,
613,0.002139715711,613,-0.0003924092744,613,0.0114179058,613,0.005168008618,613,0.0001598752715,
612,0.002142915502,612,-0.0004380801984,612,0.01145256124,612,0.005124158692,612,0.0001343430631,
611,0.002174341585,611,-0.0004369940725,611,0.01144360472,611,0.005108469632,611,0.0001582956611,
610,0.002178348135,610,-0.0004484240199,610,0.01144121308,610,0.005091654137,610,0.0001408684038,
609,0.002224685159,609,-0.0003321452532,609,0.01146850828,609,0.005094090011,609,0.0001867297397,
608,0.00226756651,608,-0.0003374736407,608,0.01152440626,608,0.005093670916,608,0.0001758530998,
607,0.002326509217,607,-0.0002927233872,607,0.01151132863,607,0.005122639704,607,0.0001944471442,
606,0.002362399129,606,-0.0003453885147,606,0.01156614255,606,0.005081230309,606,0.0001643552241,
605,0.002425155137,605,-0.0002431047324,605,0.01157685649,605,0.005125808995,605,0.0001959751098,
604,0.002523849718,604,-0.0002332734584,604,0.01160439942,604,0.005130209494,604,0.0002258361201,
603,0.002531790873,603,-0.0002969658235,603,0.01155035198,603,0.005028354935,603,0.0001830005785,
602,0.0026989826,602,-0.0002153178648,602,0.011671138,602,0.005120649002,602,0.0002710588742,
601,0.002794222208,601,-0.0002152661182,601,0.01166964881,601,0.005050614476,601,0.0002285814699,
600,0.002973712748,600,-0.0001682262082,600,0.01178605296,600,0.005134033971,600,0.0002703595383,
599,0.00316704507,599,-0.0001193179196,599,0.01175833866,599,0.005157085136,599,0.0003104578063,
598,0.003281192156,598,-0.0001074652464,598,0.01180299651,598,0.005096892826,598,0.0002628738876,
597,0.003474165685,597,-8.929741307E-5,597,0.01184717938,597,0.005108233541,597,0.0003459224827,
596,0.003725365736,596,-5.420183516E-5,596,0.01192167122,596,0.005124499556,596,0.0003246795968,
595,0.004028309602,595,-3.763656787E-5,595,0.01191539224,595,0.005102864467,595,0.0003120120964,
594,0.004446912091,594,-2.72311845E-5,594,0.01200575568,594,0.005094587803,594,0.0003806387249,
593,0.004917150829,593,1.050983064E-5,593,0.0121130133,593,0.005170994904,593,0.0003663114621,
592,0.005435497966,592,9.506368224E-5,592,0.01221113931,592,0.005178617779,592,0.000452230277,
591,0.005997374654,591,4.918612467E-5,591,0.01218259893,591,0.005150640849,591,0.0004306194023,
590,0.006653335411,590,3.888246647E-5,590,0.0122105265,590,0.005126804579,590,0.0004194775538,
589,0.007612740621,589,8.431878086E-5,589,0.01227514818,589,0.00507944962,589,0.0003846027539,
588,0.008757961914,588,0.000137061943,588,0.0124302581,588,0.005152029451,588,0.0005091388011,
587,0.009947765619,587,0.000165960766,587,0.01246502064,587,0.005132802762,587,0.0005137260305,
586,0.01148979831,586,0.0002469187602,586,0.0125891529,586,0.005173771642,586,0.0006025513285,
585,0.01333362423,585,0.000212161438,585,0.01270639058,585,0.00512389699,585,0.0005423648399,
584,0.01537858043,584,0.0002387342392,584,0.01273669768,584,0.005116903223,584,0.0006020328728,
583,0.01795269363,583,0.0002819638175,583,0.01286352053,583,0.005133771803,583,0.0006644831738,
582,0.02106129751,582,0.0004255407548,582,0.0130656017,582,0.005162455142,582,0.0007012731512,
581,0.0245917812,581,0.0003387464385,581,0.01316186227,581,0.005160752218,581,0.0007277721888,
580,0.02885451727,580,0.0004062372318,580,0.01330490317,580,0.005132409744,580,0.0007973721949,
579,0.03375985101,579,0.0003930750536,579,0.01343787275,579,0.005120806396,579,0.0008266002988,
578,0.03960593045,578,0.0003887482162,578,0.01354222745,578,0.005129843019,578,0.0008480233955,
577,0.0465753749,577,0.0004565059207,577,0.01378312707,577,0.005116117653,577,0.0009408083861,
576,0.05461578816,576,0.0003753015772,576,0.01388045494,576,0.005073556677,576,0.0009421833092,
575,0.06422990561,575,0.0005076615489,575,0.01415106654,575,0.005141211208,575,0.001017525909,
574,0.07543586195,574,0.0005541318678,574,0.01439690776,574,0.005192449782,574,0.001045834739,
573,0.08846420795,573,0.0005967189209,573,0.01452054922,573,0.005210185889,573,0.001098798588,
572,0.1035750434,572,0.0005768116098,572,0.01475253887,572,0.005177360494,572,0.001179619227,
571,0.1209281087,571,0.0006437950069,571,0.014997622,571,0.005211024079,571,0.001223591506,
570,0.1410598904,570,0.0006599462358,570,0.01518705394,570,0.005171335302,570,0.001207523164,
569,0.1642696708,569,0.0007143409457,569,0.01558722835,569,0.005084320903,569,0.00157898583,
568,0.1905919462,568,0.0006932356046,568,0.01581691764,568,0.005127564073,568,0.001635938301,
567,0.2198541015,567,0.0008072011406,567,0.01611611247,567,0.005141892005,567,0.001654776861,
566,0.2524033487,566,0.0008544038283,566,0.01631724089,566,0.005152998492,566,0.001745681162,
565,0.2888275385,565,0.0009183171787,565,0.01660201512,565,0.005153077189,565,0.001766889705,
564,0.3281495869,564,0.0008562713047,564,0.01676126197,564,0.005126673263,564,0.001769826747,
563,0.3705303073,563,0.0008712631534,563,0.01695176028,563,0.005105169024,563,0.001737936167,
562,0.4159071743,562,0.0009365538717,562,0.01724899188,562,0.005185009912,562,0.001822645077,
561,0.4636227489,561,0.0009918394499,561,0.01741863415,561,0.005116065033,561,0.001789424918,
560,0.5130425096,560,0.001004708465,560,0.01767404191,560,0.005175972357,560,0.001814248855,
559,0.563185215,559,0.001083253883,559,0.01791109517,559,0.005176862702,559,0.001818199991,
558,0.6125920415,558,0.001109516714,558,0.01812301576,558,0.005139063112,558,0.001826856285,
557,0.6608815789,557,0.001125892857,557,0.01832075603,557,0.005132645369,557,0.001807698281,
556,0.7063007951,556,0.001170197153,556,0.01851129159,556,0.005207749549,556,0.001828909852,
555,0.7480011582,555,0.001142477267,555,0.01858604327,555,0.005133431405,555,0.001765044406,
554,0.7846630812,554,0.001238777884,554,0.01876288466,554,0.005199601874,554,0.001793895732,
553,0.8151477575,553,0.00131165341,553,0.01887141913,553,0.005143725779,553,0.00173182867,
552,0.8389441967,552,0.001244307379,552,0.01888785698,552,0.005157687701,552,0.001737806248,
551,0.8555900455,551,0.001391552854,551,0.01901927404,551,0.005174714606,551,0.001773595577,
550,0.8645196557,550,0.001297373325,550,0.01895504817,550,0.005159940105,550,0.001677696127,
549,0.8661516905,549,0.00145866198,549,0.01894139126,549,0.005191480741,549,0.00171561155,
548,0.8606379032,548,0.001425807364,548,0.01893579401,548,0.005233765114,548,0.001678917441,
547,0.8485318422,547,0.001469311072,547,0.01883746311,547,0.005212177057,547,0.00165903836,
546,0.8304474354,546,0.001551032066,546,0.0187354777,546,0.00521215098,546,0.001662520459,
545,0.8076088428,545,0.001578778028,545,0.01859028451,545,0.005220350809,545,0.001633236068,
544,0.780469358,544,0.001574439346,544,0.01836120524,544,0.005153601058,544,0.001573374146,
543,0.7504919767,543,0.001670056256,543,0.01830493286,543,0.005236358847,543,0.001547239139,
542,0.7181930542,542,0.001709322445,542,0.01812455431,542,0.005256795324,542,0.001517624827,
541,0.6845979691,541,0.001745265326,541,0.01795452833,541,0.005213591736,541,0.001525028259,
540,0.650241971,540,0.00183475879,540,0.01785795577,540,0.005248463247,540,0.001522768289,
539,0.6157095432,539,0.00183972402,539,0.0176446829,539,0.005275084171,539,0.001482713735,
538,0.5819612741,538,0.001859533368,538,0.01758284122,538,0.005269581918,538,0.001501675462,
537,0.549451232,537,0.001877783681,537,0.01739476062,537,0.005275005475,537,0.001460687956,
536,0.5181650519,536,0.001982152695,536,0.01732603274,536,0.005267564207,536,0.00148780481,
535,0.4884801805,535,0.002031876007,535,0.01719216257,535,0.005243799649,535,0.001405991847,
534,0.4606895447,534,0.001989381853,534,0.01706326194,534,0.005214953795,534,0.00141515932,
533,0.4350005388,533,0.002103089821,533,0.01703932881,533,0.005250821356,533,0.001462402171,
532,0.4113713205,532,0.002088913694,532,0.01696099341,532,0.005257869605,532,0.001439312473,
531,0.3896113932,531,0.002152801026,531,0.01693098247,531,0.005317429081,531,0.001446350943,
530,0.3700625896,530,0.002209386323,530,0.01688404381,530,0.005272647366,530,0.001449545613,
529,0.3526583016,529,0.002257184125,529,0.01686391421,529,0.005212281831,529,0.001387709402,
528,0.3373752236,528,0.002275555162,528,0.01688652113,528,0.005250166636,528,0.001379477326,
527,0.3240971267,527,0.002368333517,527,0.01690818556,527,0.005322119687,527,0.001474609715,
526,0.3127849698,526,0.00241208775,526,0.01689254865,526,0.005299819633,526,0.001438818988,
525,0.3033844829,525,0.002481333446,525,0.01700532809,525,0.005344918929,525,0.00150515628,
524,0.2958061695,524,0.002478079172,524,0.01701991819,524,0.005315070506,524,0.001467155293,
523,0.289840281,523,0.002565770876,523,0.01704853587,523,0.005312528927,523,0.00144723407,
522,0.2855451107,522,0.002691767644,522,0.01709578745,522,0.005323639605,522,0.001456636121,
521,0.2826116979,521,0.002702421043,521,0.01717813313,521,0.00528674433,521,0.001537159667,
520,0.2809170783,520,0.002755092224,520,0.01721729152,520,0.005340463948,520,0.00151032547,
519,0.2800460756,519,0.002772025531,519,0.01730776764,519,0.00534001831,519,0.001453571371,
518,0.2799114287,518,0.002804904012,518,0.01730410382,518,0.005296832416,518,0.001470505842,
517,0.2803446352,517,0.002875984414,517,0.01739882864,517,0.005339887459,517,0.001430066652,
516,0.2808399796,516,0.002949656453,516,0.01748322509,516,0.005344080273,516,0.001423937385,
515,0.2812825143,515,0.003008326981,515,0.01759494469,515,0.005391831044,515,0.001482973457,
514,0.2813308537,514,0.003096594941,514,0.01766703278,514,0.005369422492,514,0.001507650013,
513,0.2806638181,513,0.003097481327,513,0.01775552705,513,0.005372724961,513,0.001500065089,
512,0.279240638,512,0.003247677814,512,0.01788981259,512,0.005468185525,512,0.001511312556,
511,0.2767377198,511,0.0032884432,511,0.01806140319,511,0.00546346698,511,0.001543628168,
510,0.2729845047,510,0.003280122764,510,0.01806083694,510,0.005434738006,510,0.001465389039,
509,0.2680952549,509,0.00337063754,509,0.01812789962,509,0.005387663841,509,0.001471207128,
508,0.2619851828,508,0.003414988751,508,0.01821476035,508,0.005468395539,508,0.001481259125,
507,0.254698962,507,0.003447263734,507,0.01825398579,507,0.00536478404,507,0.00137851655,
506,0.2464834452,506,0.003588889493,506,0.01845867373,506,0.005475499202,506,0.001476713689,
505,0.2373535782,505,0.003689832985,505,0.01859074458,505,0.005511257332,505,0.001489597023,
504,0.2273142487,504,0.003676701337,504,0.01862470806,504,0.005453977734,504,0.001381139387,
503,0.2170056999,503,0.003782835556,503,0.01871004514,503,0.005443335511,503,0.001391604776,
502,0.2062393874,502,0.003741919296,502,0.0188218914,502,0.005437516607,502,0.001416146173,
501,0.1955404133,501,0.003893069923,501,0.0190434251,501,0.005506433547,501,0.001473986427,
500,0.1848136187,500,0.003963179421,500,0.01917389035,500,0.005554674193,500,0.001477544778,
499,0.1743619889,499,0.004024756141,499,0.01934531331,499,0.005540621001,499,0.001455623191,
498,0.1641929299,498,0.00410897145,498,0.01947697811,498,0.005541564897,498,0.00147541496,
497,0.1545186937,497,0.004199894611,497,0.01970591582,497,0.005582309794,497,0.001489622984,
496,0.1452112049,496,0.004201489035,496,0.01984568313,496,0.005519279744,496,0.001465856563,
495,0.1364828795,495,0.004272928927,495,0.02003599517,495,0.005522268359,495,0.001395785832,
494,0.1284160614,494,0.004349766765,494,0.02030325495,494,0.005615297239,494,0.001490532071,
493,0.1209807396,493,0.004425833467,493,0.0205111634,493,0.005557977594,493,0.001427287702,
492,0.1140814722,492,0.004515018314,492,0.02079571597,492,0.005554805044,492,0.001430949662,
491,0.1077644899,491,0.004587582313,491,0.02104662545,491,0.005585089326,491,0.001444662805,
490,0.1020546183,490,0.004621827975,490,0.02123814262,490,0.005578848999,490,0.001483934582,
489,0.09689126909,489,0.004758865107,489,0.02150516585,489,0.005628828425,489,0.001469025388,
488,0.09214039892,488,0.004839479923,488,0.02182659879,488,0.005689304322,488,0.001460246393,
487,0.08798740804,487,0.004911679309,487,0.02211468294,487,0.005670420825,487,0.001494350494,
486,0.0842057243,486,0.004982921761,486,0.0224139709,486,0.005647211336,486,0.001476090285,
485,0.08081735671,485,0.005093016196,485,0.0226570908,485,0.005711833946,485,0.001490012626,
484,0.0778118521,484,0.005170654505,484,0.02299141325,484,0.005802201107,484,0.001505727763,
483,0.07512594014,483,0.005293033086,483,0.0232915245,483,0.005805113353,483,0.001543628168,
482,0.07257654518,482,0.005345521495,482,0.0235989783,482,0.005858477205,482,0.001548641943,
481,0.07025949657,481,0.005385069177,481,0.02390615642,481,0.00588064827,481,0.001511962037,
480,0.06810242683,480,0.005521927495,480,0.02414931729,480,0.005884820595,480,0.001536510186,
479,0.06604533643,479,0.005602448247,479,0.02448366955,479,0.00591258239,479,0.001497597317,
478,0.06415323168,478,0.0057097096,478,0.02485415712,478,0.006079479586,478,0.001609279891,
477,0.06219835207,477,0.005748372059,477,0.02520252205,477,0.006129568908,477,0.001583116711,
476,0.06022350863,476,0.005884662736,476,0.02552036196,476,0.006202062126,476,0.001610475127,
475,0.05834970623,475,0.006000025198,475,0.02588692866,475,0.00631924253,475,0.001610501087,
474,0.05641214177,474,0.00610888144,474,0.02633168735,474,0.006531177089,474,0.001690091682,
473,0.05447176844,473,0.006212696899,473,0.02665509097,473,0.006700940896,473,0.001638095011,
472,0.05238272995,472,0.006273306906,472,0.02698300406,472,0.006888838951,472,0.00162936456,
471,0.0503994748,471,0.006389376707,471,0.02744096518,471,0.007109182421,471,0.001622556942,
470,0.04839169234,470,0.00651916815,470,0.02781616524,470,0.007380398456,470,0.001623986056,
469,0.04642636329,469,0.006589465775,469,0.02825751901,469,0.007715888321,469,0.001628585043,
468,0.04444780946,468,0.00669297576,468,0.02865869924,468,0.008144102059,468,0.001738455961,
467,0.04259285331,467,0.00681780884,467,0.02908837236,467,0.008604343049,467,0.001707217307,
466,0.04063317925,466,0.00687739905,466,0.02947699465,466,0.009116802365,466,0.001651788596,
465,0.03895778954,465,0.007009993307,465,0.02993559837,465,0.009780169465,465,0.001635730499,
464,0.03732423484,464,0.007181234192,464,0.03037344851,464,0.0105136577,464,0.001739547588,
463,0.0358248651,463,0.007280936465,463,0.03086607344,463,0.01138365082,463,0.00173479144,
462,0.03438531235,462,0.007390351035,462,0.03126661107,462,0.0123999184,462,0.00180000416,
461,0.03305340931,461,0.007483359426,461,0.0317357704,461,0.01352446806,461,0.00172917766,
460,0.03192308918,460,0.007639006246,460,0.03215517476,460,0.01478679292,460,0.001763484906,
459,0.03073516116,459,0.007705980912,459,0.03257124498,459,0.01618752442,459,0.001789035043,
458,0.02982382104,458,0.00784826465,458,0.03297265992,458,0.01786709949,458,0.001801667735,
457,0.02898361906,457,0.007996580563,457,0.03339155763,457,0.01967073046,457,0.001841595746,
456,0.02819978446,456,0.008141992614,456,0.03380780667,456,0.02162791044,456,0.001898088609,
455,0.02743470483,455,0.008241809905,455,0.03412618861,455,0.02370506525,455,0.001825998421,
454,0.02691970952,454,0.008345397189,454,0.03450572491,454,0.02613865212,454,0.001855555805,
453,0.02628331073,453,0.008465560153,453,0.03481973708,453,0.02865759283,453,0.001823970815,
452,0.02580807917,452,0.008669988252,452,0.03521498293,452,0.0314582102,452,0.001926922938,
451,0.0254543703,451,0.008792749606,451,0.03558926657,451,0.03441882506,451,0.001921098679,
450,0.02510659955,450,0.008970403112,450,0.03595177829,450,0.03768436238,450,0.001939611626,
449,0.02476768568,449,0.009103029966,449,0.03617094457,449,0.04089448228,449,0.00190726656,
448,0.02453384548,448,0.009212111123,448,0.03659522161,448,0.04438687488,448,0.001961245667,
447,0.02428666316,447,0.009470595978,447,0.03690654784,447,0.0481339395,447,0.001998639666,
446,0.02405207045,446,0.009578790516,446,0.03724071756,446,0.05193622038,446,0.002029639203,
445,0.02381888777,445,0.009705991484,445,0.0375428535,445,0.05580390617,445,0.00199138443,
444,0.02360496297,444,0.009828251787,444,0.03781232983,444,0.05982819572,444,0.001993724843,
443,0.02348556742,443,0.01002134942,443,0.03819798678,443,0.06395445019,443,0.002056817757,
442,0.02330474555,442,0.01016722899,442,0.03844459355,442,0.06805697829,442,0.002043293323,
441,0.02323250845,441,0.0103879692,441,0.03883007541,441,0.07232470065,441,0.002161281882,
440,0.02297692187,440,0.01054879837,440,0.03903399035,440,0.07637693733,440,0.002106289379,
439,0.02291087806,439,0.01069795992,439,0.03940304741,439,0.08058210462,439,0.002154413844,
438,0.02269279212,438,0.01083366293,438,0.03968848661,438,0.08473070711,438,0.00213521556,
437,0.02257446386,437,0.01104831696,437,0.04003780335,437,0.0889197737,437,0.002174107358,
436,0.02246764489,436,0.01130800322,436,0.04028187692,436,0.09290251136,436,0.002219221322,
435,0.02233926766,435,0.01144902688,435,0.04060441628,435,0.09698200971,435,0.002218076494,
434,0.022161128,434,0.01158842072,434,0.04084240645,434,0.1009571478,434,0.002221719129,
433,0.02207668871,433,0.01183781587,433,0.04113425687,433,0.1049994007,433,0.002311284887,
432,0.02186816558,432,0.0120394472,432,0.04137823731,432,0.1087930799,432,0.002283830196,
431,0.02173735388,431,0.01215358172,431,0.04163101315,431,0.1126790717,431,0.0023248957,
430,0.02162124403,430,0.01240822859,430,0.04185503349,430,0.1166166365,430,0.002322995802,
429,0.02141965739,429,0.01264335681,429,0.04198797047,429,0.120531328,429,0.002342827152,
428,0.02132910863,428,0.01283088513,428,0.0421853587,428,0.1243852675,428,0.002371326555,
427,0.02107254788,427,0.01301558595,427,0.04224498197,427,0.1284007877,427,0.002355606062,
426,0.02091388591,426,0.01328664739,426,0.04240869358,426,0.1324433833,426,0.002359640319,
425,0.02065849304,425,0.01349055395,425,0.04244785383,425,0.1364464909,425,0.002392201219,
424,0.02058427967,424,0.01378048211,424,0.04263396934,424,0.1406269073,424,0.002546970965,
423,0.02026311308,423,0.01395625807,423,0.0426835455,423,0.1448324174,423,0.00246157404,
422,0.02010100521,422,0.01429438125,422,0.04279888421,422,0.1491207182,422,0.002598087071,
421,0.01979970373,421,0.01448521949,421,0.04272413254,421,0.153252542,421,0.002528067678,
420,0.01956597716,420,0.01473839954,420,0.042755723,420,0.1575713456,420,0.002539341804,
419,0.01930136234,419,0.01501994394,419,0.04276814684,419,0.1617730707,419,0.002554339822,
418,0.01902303286,418,0.01525901072,418,0.04274921119,418,0.1659058034,418,0.00257069245,
417,0.0186722111,417,0.01549558062,417,0.04275657982,417,0.1699789464,417,0.002602852648,
416,0.0184072759,416,0.01587131061,416,0.04278494418,416,0.1740055531,416,0.002689996501,
415,0.01807163097,415,0.01607202925,415,0.04282653704,415,0.1776228696,415,0.002652100055,
414,0.01774668135,414,0.01631256379,414,0.04278802872,414,0.181148231,414,0.002648063004,
413,0.0174849499,413,0.01675943285,413,0.04280628264,413,0.184496358,413,0.002642359352,
412,0.01715704612,412,0.01696239226,412,0.04277563095,412,0.1875216812,412,0.002654626267,
411,0.01693119667,411,0.01727183349,411,0.04281188175,411,0.1903294176,411,0.002754779765,
410,0.01658084989,410,0.01759839617,410,0.04274206981,410,0.1927614212,410,0.00273008435,
409,0.01621098258,409,0.01783033647,409,0.04274015501,409,0.1950028092,409,0.002795915585,
408,0.01597528346,408,0.0182090383,408,0.04274492338,408,0.1969391406,408,0.002783957403,
407,0.01570696943,407,0.01861206256,407,0.04264462367,407,0.1986818016,407,0.002784296172,
406,0.01535063609,406,0.01880488917,406,0.04242319241,406,0.2000824511,406,0.002738706768,
405,0.01519308612,405,0.01931015775,405,0.04244048893,405,0.2014074177,405,0.002795133973,
404,0.01493238006,404,0.01956492104,404,0.04228946567,404,0.2025117427,404,0.002868714277,
403,0.01466004923,403,0.01998628117,403,0.04209987074,403,0.2035178095,403,0.002931048395,
402,0.01445829589,402,0.02034584433,402,0.04197169095,402,0.2043441087,402,0.002926826477,
401,0.01430171076,401,0.02077855356,401,0.04177439958,401,0.2051980048,401,0.002978378208,
400,0.01415440999,400,0.02123433724,400,0.04160816595,400,0.2059548795,400,0.003044064622,
399,0.01388264634,399,0.02163234539,399,0.04137279838,399,0.2065559477,399,0.002995111747,
398,0.01385968924,398,0.02206881717,398,0.04126119614,398,0.2073062509,398,0.003108144738,
397,0.0135971643,397,0.02259685099,397,0.04106502607,397,0.2078929394,397,0.003078762675,
396,0.01351739094,396,0.02291314304,396,0.0407311134,396,0.2083573937,396,0.002994955285,
395,0.01337166317,395,0.02338614501,395,0.04048136249,395,0.2087895125,395,0.003136303276,
394,0.01321765874,394,0.02377016097,394,0.0403140597,394,0.2092041373,394,0.003100036411,
393,0.01325832959,393,0.02434858866,393,0.04009162635,393,0.2095362395,393,0.00322151999,
392,0.0131656779,392,0.02484771609,392,0.03992802277,392,0.209914133,392,0.003243087791,
391,0.01315748598,391,0.02538336813,391,0.03974124417,391,0.2101591676,391,0.003274854273,
390,0.01325360592,390,0.02591978945,390,0.03958712891,390,0.2104770392,390,0.003365524346,
389,0.01332831196,389,0.02642367035,389,0.0393945463,389,0.2105347365,389,0.003330542706,
388,0.01324164961,388,0.02696479671,388,0.03909964487,388,0.2107375115,388,0.003302189056,
387,0.01332460251,387,0.02748944238,387,0.03890730441,387,0.2109574229,387,0.003373872489,
386,0.01352606993,386,0.0281390734,386,0.03887072578,386,0.2113974243,386,0.003450368764,
385,0.01379282679,385,0.02881728299,385,0.03875535354,385,0.2118124366,385,0.003526722081,
384,0.01403068472,384,0.02937860228,384,0.03843647614,384,0.2122986168,384,0.003537787357,
383,0.01429946441,383,0.03003175929,383,0.03832079098,383,0.2129451632,383,0.003559318371,
382,0.01450224128,382,0.03066328913,382,0.0380798243,382,0.2138417065,382,0.003465580987,
381,0.01496040449,381,0.03135210648,381,0.03796186298,381,0.2148758471,381,0.003527087392,
380,0.0153398551,380,0.03206617758,380,0.03776869923,380,0.2162234187,380,0.003606664483,
379,0.01569411345,379,0.03272741288,379,0.03759560734,379,0.2176809609,379,0.003577248892,
378,0.01614292338,378,0.03351628035,378,0.03742786124,378,0.2194072306,378,0.003582938574,
377,0.01679927856,377,0.03436393291,377,0.03735340387,377,0.2214131653,377,0.00373223261,
376,0.01737263985,376,0.03513282537,376,0.03713820875,376,0.2234672904,376,0.003751423443,
375,0.01800508983,375,0.03589422256,375,0.03703637421,375,0.2257463038,375,0.003775184508,
374,0.01873193681,374,0.03660045937,374,0.03695719317,374,0.228122592,374,0.003775523975,
373,0.01948006451,373,0.03752527386,373,0.03685821965,373,0.230638966,373,0.003870164277,
372,0.02028879896,372,0.03828887269,372,0.03680028766,372,0.2331109196,372,0.003870503744,
371,0.02126646973,371,0.0391590707,371,0.03669686988,371,0.2356301248,371,0.003916943446,
370,0.02221070975,370,0.04000763223,370,0.03657807037,370,0.2379422933,370,0.004032646772,
369,0.02337396145,369,0.04090378433,369,0.03657629713,369,0.2401840389,369,0.004030321259,
368,0.02443232201,368,0.04189690948,368,0.03650432453,368,0.2419534475,368,0.004083493724,
367,0.02556324564,367,0.04273127392,367,0.03643813357,367,0.2432361245,367,0.003984026145,
366,0.02682103962,366,0.04379217699,366,0.03649489209,366,0.2439620048,366,0.004178043921,
365,0.02805614285,365,0.04462302104,365,0.03641975299,365,0.2438477129,365,0.004121201579,
364,0.02931282483,364,0.0456844233,364,0.03647056594,364,0.2431858629,364,0.004259100184,
363,0.03066267818,363,0.04671538994,363,0.03650891408,363,0.2413543016,363,0.004310548771,
362,0.03183060512,362,0.04753729701,362,0.03651631996,362,0.2387230992,362,0.004283960909,
361,0.03300514445,361,0.0487039201,361,0.03649224713,361,0.2349608839,361,0.00434921775,
360,0.03420594335,360,0.04973114654,360,0.03655928746,360,0.2303999662,360,0.004297267646,
359,0.03510615975,359,0.05082892254,359,0.03670822084,359,0.2254024446,359,0.004463126883,
358,0.03616303951,358,0.05181184039,358,0.0366307348,358,0.2196059078,358,0.004462106619,
357,0.03669441864,357,0.05275565386,357,0.03676729649,357,0.2133220136,357,0.004521295894,
356,0.03738125041,356,0.05390448496,356,0.03681502119,356,0.2069627643,356,0.004559957422,
355,0.03773947433,355,0.05511554703,355,0.03679639846,355,0.2004154176,355,0.004486665595,
354,0.0379762426,354,0.05607008189,354,0.03692796826,354,0.1941110194,354,0.004601918627,
353,0.03820409253,353,0.0574952513,353,0.03720537946,353,0.1879453361,353,0.004773756489,
352,0.03810302541,352,0.05855710059,352,0.03717608005,352,0.1819540113,352,0.004815791268,
351,0.03790417686,351,0.05962102115,351,0.03730840981,351,0.1761221886,351,0.004805242643,
350,0.03778860718,350,0.06080190837,350,0.03743838519,350,0.1706623584,350,0.004850264173,
349,0.03685173765,349,0.06085696816,349,0.03593032435,349,0.1631212831,349,0.00439672824,
348,0.03850418702,348,0.06392692029,348,0.03919125348,348,0.1611824185,348,0.004699748475,
347,0.03866357729,347,0.06517850608,347,0.03717229888,347,0.1544115245,347,0.005157006439,
346,0.03646834195,346,0.06506019831,346,0.0372630842,346,0.1481784135,346,0.004366395995,
345,0.03855977207,345,0.06772720069,345,0.03830948099,345,0.1446690559,345,0.004973704927,
344,0.03800918534,344,0.06861392409,344,0.037475802,344,0.1379769892,344,0.005076646805,
343,0.03791248426,343,0.06984901428,343,0.03828539327,343,0.133145079,343,0.004777918104,
342,0.03852260113,342,0.07185725868,342,0.03828409314,342,0.1280016452,342,0.005009945482,
341,0.03926273808,341,0.07321919501,341,0.03836442158,341,0.1225012615,341,0.005310851615,
340,0.03923644498,340,0.07449813932,340,0.03870495036,340,0.1177381277,340,0.005069601815,
339,0.0408940278,339,0.07617735863,339,0.03874440119,339,0.1129347309,339,0.005271677859,
338,0.04213888943,338,0.0779042989,338,0.03907502815,338,0.1083743051,338,0.005258420017,
337,0.04365548119,337,0.07972317934,337,0.03919105604,337,0.1044537947,337,0.005410702433,
336,0.04504237324,336,0.08107030392,336,0.03938836604,336,0.1011156738,336,0.005222132429,
335,0.04683575407,335,0.08277981728,335,0.03917408735,335,0.09806738794,335,0.005263057537,
334,0.04948831722,334,0.08449470997,334,0.03980186954,334,0.0965692848,334,0.005229468457,
333,0.05173962936,333,0.08608622104,333,0.03936175257,333,0.09487583488,333,0.005228289403,
332,0.05439415574,332,0.08778499067,332,0.03981520236,332,0.09435852617,332,0.005625392776,
331,0.05762866139,331,0.08944243938,331,0.04033135623,331,0.09460011125,331,0.005426953081,
330,0.06077463552,330,0.0911533311,330,0.04049261287,330,0.09575524926,330,0.005794619676,
329,0.06460990012,329,0.0931160152,329,0.04084789753,329,0.0976357758,329,0.005908200052,
328,0.06864530593,328,0.09472285211,328,0.04080947861,328,0.09993034601,328,0.005973911379,
327,0.07262880355,327,0.09639430791,327,0.04085779563,327,0.1027978957,327,0.006018765271,
326,0.07674887776,326,0.09805437922,326,0.04110483453,326,0.1061557308,326,0.005787746515,
325,0.0814519003,325,0.09996765107,325,0.04129658267,325,0.1090888828,325,0.005993280094,
324,0.08597062528,324,0.1021350399,324,0.04154056683,324,0.1125797629,324,0.006192399189,
323,0.090577133,323,0.103766121,323,0.04165696725,323,0.1152398586,323,0.006033647805,
322,0.09491677582,322,0.105367519,322,0.04174974933,322,0.1172523126,322,0.006180058233,
321,0.09929800779,321,0.1073122695,321,0.04189026728,321,0.1184175983,321,0.006432592403,
320,0.1031701267,320,0.108972393,320,0.04201081023,320,0.1186769977,320,0.006423791405,
319,0.1072328985,319,0.1109469533,319,0.04271601886,319,0.1188599616,319,0.006665532012,
318,0.1094306782,318,0.1125992239,318,0.04231916741,318,0.1167831272,318,0.006219445728,
317,0.112319693,317,0.1144128069,317,0.04304494336,317,0.115396671,317,0.006621793844,
316,0.1136042997,316,0.116251722,316,0.0429444015,316,0.1131377593,316,0.006538613699,
315,0.1149854064,315,0.1182643548,315,0.04310434312,315,0.11094632,315,0.006736852694,
314,0.1151633188,314,0.1200828925,314,0.04313796386,314,0.108698912,314,0.006592987571,
313,0.1152678058,313,0.1220487282,313,0.04387478903,313,0.1067307517,313,0.007095526438,
312,0.1143944785,312,0.1238687932,312,0.04363178089,312,0.1043288335,312,0.006987500936,
311,0.1135793477,311,0.1261147261,311,0.04442162812,311,0.1029352173,311,0.007577257231,
310,0.1118799523,310,0.1277932078,310,0.04410899431,310,0.1004201174,310,0.007284411229,
309,0.1101936474,309,0.1299448311,309,0.04444184527,309,0.0987239629,309,0.007389824372,
308,0.1089512035,308,0.1321414858,308,0.04497360438,308,0.09705864638,308,0.007809256669,
307,0.1072760075,307,0.1342474669,307,0.04496123269,307,0.09489416331,307,0.007767142262,
306,0.1064236462,306,0.1365956068,306,0.045510564,306,0.09254018962,306,0.00795455277,
305,0.1047549322,305,0.1390576363,305,0.04592429847,305,0.08978451788,305,0.008253813721,
304,0.1036209166,304,0.1414028257,304,0.04633324221,304,0.08679846674,304,0.008311938494,
303,0.102158688,303,0.1442227811,303,0.04674758762,303,0.0838559866,303,0.00855206605,
302,0.1012583449,302,0.1467740983,302,0.04698516801,302,0.08039070666,302,0.008777006529,
301,0.1001996621,301,0.1501388699,301,0.04764084518,301,0.07745574415,301,0.009224195033,
300,0.09975462407,300,0.1533263028,300,0.04820517451,300,0.07435726374,300,0.00957063958,
299,0.09895901382,299,0.157139942,299,0.04881212115,299,0.07126557082,299,0.00973484572,
298,0.09832561761,298,0.1607349068,298,0.04943250492,298,0.06842400879,298,0.0101622995,
297,0.09795413911,297,0.1650324613,297,0.05028335005,297,0.06570060551,297,0.01063434128,
296,0.09781990945,296,0.1698497832,296,0.05110467598,296,0.06340032816,296,0.01119725127,
295,0.09765159339,295,0.1749002039,295,0.05140056089,295,0.06075671315,295,0.01123988535,
294,0.09830607474,294,0.1809896231,294,0.05295460671,294,0.05917976797,294,0.01211711299,
293,0.09897956252,293,0.1866566092,293,0.05346437171,293,0.05700337142,293,0.01263221726,
292,0.1001599878,292,0.1930642575,292,0.05456626788,292,0.05569183081,292,0.01326873805,
291,0.1014254913,291,0.1989959627,291,0.05530158803,291,0.05348896608,291,0.01355242915,
290,0.103581056,290,0.2053528279,290,0.0567589514,290,0.05219811201,290,0.01443271153,
289,0.1058140248,289,0.2110736072,289,0.05754557624,289,0.05066576228,289,0.01489632018,
288,0.1086371765,288,0.2165543586,288,0.05866043642,288,0.04931440949,288,0.01553713623,
287,0.1125221327,287,0.2212222666,287,0.06019368395,287,0.04812222719,287,0.01610654965,
286,0.1162488088,286,0.2249225378,286,0.06101164222,286,0.04681530967,286,0.01664055698,
285,0.1210777164,285,0.2279832512,285,0.06277678907,285,0.04593842477,285,0.01731886715,
284,0.1255424023,284,0.2303699702,284,0.0636670664,284,0.04472894967,284,0.01725850068,
283,0.1314090341,283,0.2324068248,283,0.06576240808,283,0.04433549941,283,0.01802392304,
282,0.1373339891,282,0.2341283113,282,0.06725173444,282,0.04363781959,282,0.01826195046,
281,0.1444338411,281,0.2352444977,281,0.06963190436,281,0.04378120974,281,0.01893887669,
280,0.1512295604,280,0.2358573973,280,0.07145979255,280,0.0432324037,280,0.01886690408,
279,0.1594816595,279,0.2361932248,279,0.07462626696,279,0.04383452609,279,0.01960269734,
278,0.16814363,278,0.2354748994,278,0.07712747157,278,0.04346214235,278,0.01931922324,
277,0.1774525493,277,0.2351246476,277,0.08093202114,277,0.04423448443,277,0.0197662171,
276,0.1878483742,276,0.2339540571,276,0.08464683592,276,0.04460557923,276,0.01974107698,
275,0.1990133077,275,0.2329173386,275,0.08942644298,275,0.0452552326,275,0.02030767687,
274,0.2113431692,274,0.2317426801,274,0.09462492913,274,0.04597330093,274,0.02061742172,
273,0.2236759812,273,0.2305507064,273,0.09978423268,273,0.04660739377,273,0.02109521069,
272,0.2373428047,272,0.229326874,272,0.1054396555,272,0.04765280336,272,0.02131306753,
271,0.2502781153,271,0.2283077091,271,0.1107715964,271,0.04886788502,271,0.02177801356,
270,0.2638777196,270,0.2276664376,270,0.1169975251,270,0.051139649,270,0.02235624567,
269,0.275581181,269,0.2272655815,269,0.1226001531,269,0.05382955447,269,0.02337224036,
268,0.286729455,268,0.2275343686,268,0.1291757077,268,0.05869424716,268,0.02454198152,
267,0.2954981923,267,0.2281886488,267,0.1350680888,267,0.06470859051,267,0.02613455616,
266,0.3021746576,266,0.2291169018,266,0.1407795101,266,0.07341015339,266,0.02772187255,
265,0.3065927327,265,0.2307028025,265,0.1462918669,265,0.08565846086,265,0.02945441753,
264,0.3093774915,264,0.2324011326,264,0.1520943046,264,0.1037065983,264,0.0315060243,
263,0.3110246956,263,0.2347615957,263,0.1575504392,263,0.12914671,263,0.03337403014,
262,0.3119762242,262,0.2376013994,262,0.163369745,262,0.1652296335,262,0.03582877293,
261,0.3125197291,261,0.2410078347,261,0.1689484268,261,0.2118393779,261,0.03838237748,
260,0.3126437366,260,0.2449081987,260,0.1740830094,260,0.2698750496,260,0.04123742878,
259,0.3125299215,259,0.2489347309,259,0.1785967499,259,0.3389775753,259,0.04349693656,
258,0.3122780025,258,0.2538374066,258,0.1833697706,258,0.4147136509,258,0.04658295587,
257,0.3113039434,257,0.2585392892,257,0.1878213733,257,0.4804116488,257,0.04877029732,
256,0.3107011318,256,0.2641889155,256,0.192226246,256,0.5165928006,256,0.05153013021,
255,0.3104635775,255,0.2701305747,255,0.1963420808,255,0.5208957195,255,0.05396653339,
254,0.3107199669,254,0.27669245,254,0.1999592483,254,0.5137892365,254,0.05655135214,
253,0.3121782243,253,0.2839432061,253,0.2031349838,253,0.5102683306,253,0.05880093202,
252,0.3145050704,252,0.2914682031,252,0.2053994685,252,0.5128298402,252,0.06064805388,
251,0.3182471693,251,0.2997341752,251,0.2076223344,251,0.5198385715,251,0.06220337376,
250,0.3225544691,250,0.3087145686,250,0.2088168114,250,0.5292661786,250,0.06369976699,
249,0.3283641636,249,0.3186500072,249,0.2101332545,249,0.5365520716,249,0.06515306234,
248,0.3342913389,248,0.3294685185,248,0.2103010118,248,0.5333599448,248,0.06602110714,
247,0.3411811888,247,0.3410885334,247,0.210629791,247,0.5184063315,247,0.06711687893,
246,0.3481135666,246,0.3537487388,246,0.2099807113,246,0.4944762588,246,0.06753820926,
245,0.3554146886,245,0.3665323555,245,0.2091181129,245,0.467485249,245,0.06794593483,
244,0.3631405532,244,0.3802673817,244,0.2076047957,244,0.4416090846,244,0.06779494137,
243,0.3710904717,243,0.3942088783,243,0.2061334401,243,0.4195139408,243,0.06769292057,
242,0.3795087039,242,0.4082607627,242,0.2046188116,242,0.4010696411,242,0.06742110103,
241,0.3878180981,241,0.4229099154,241,0.2034312934,241,0.386796385,241,0.06746962667,
240,0.3958934844,240,0.4371872842,240,0.2025177181,240,0.3735183775,240,0.0670049265,
239,0.4039239585,239,0.4521532059,239,0.2024998963,239,0.3604809046,239,0.06699991226,
238,0.4114999473,238,0.4665891826,238,0.2041177899,238,0.3474239409,238,0.06701461971,
237,0.4190319777,237,0.4816392362,237,0.2080370933,237,0.3353993297,237,0.06766478717,
236,0.4279934168,236,0.4969486296,236,0.216103375,236,0.3265689909,236,0.06919190288,
235,0.4382723272,235,0.5132359266,235,0.2282770574,235,0.3221663237,235,0.07203285396,
234,0.4507478476,234,0.5301232338,234,0.2455642521,234,0.3231162429,234,0.07615996152,
233,0.464509517,233,0.5483618975,233,0.2650564909,233,0.3290249407,233,0.08167091757,
232,0.4804078937,232,0.5670763254,232,0.2852596641,232,0.3384965062,232,0.08806457371,
231,0.497546047,231,0.5864439011,231,0.3038788438,231,0.3499623537,231,0.09551356733,
230,0.5147644281,230,0.6051689386,230,0.3212116659,230,0.3619346321,230,0.1026544869,
229,0.5316827297,229,0.6237013936,229,0.3381263912,229,0.3725853562,229,0.1096478403,
228,0.548682034,228,0.6420246363,228,0.3561623693,228,0.3832711875,228,0.1173572019,
227,0.5646907091,227,0.6602468491,227,0.3736287653,227,0.3925499916,227,0.124716036,
226,0.5803576112,226,0.6789267659,226,0.389203757,226,0.4018287659,226,0.1324703544,
225,0.5948870182,225,0.6971962452,225,0.40124771,225,0.4098524153,225,0.1395355016,
224,0.6087828279,224,0.7163710594,224,0.410949409,224,0.4176820517,224,0.1466049254,
223,0.6208103895,223,0.7344542742,223,0.4178706408,223,0.4237062931,223,0.1521304548,
222,0.631844759,222,0.7541964054,222,0.423966676,222,0.4306017458,222,0.1577547789,
221,0.6414740086,221,0.7735802531,221,0.4279149175,221,0.4372831881,221,0.1620905399,
220,0.6498298049,220,0.7948784828,220,0.4313600957,220,0.4451022744,220,0.1661536247,
219,0.6570206881,219,0.8176723719,219,0.4347050488,219,0.4532953203,219,0.1694791764,
218,0.6633537412,218,0.8423455954,218,0.4393297136,218,0.4617714286,218,0.1718639582,
217,0.6694414616,217,0.8694400191,217,0.4473280907,217,0.4708371758,217,0.1736481786,
216,0.6747937799,216,0.8988645077,216,0.458848089,216,0.4806868732,216,0.1744835675,
215,0.6809620261,215,0.9317156076,215,0.4761431515,215,0.492933929,215,0.1751199365,
214,0.6853855252,214,0.9669006467,214,0.4970336854,214,0.5078735352,214,0.1746411622,
213,0.6898459196,213,1.004927754,213,0.5198460817,213,0.5293656588,213,0.1742972583,
212,0.6912070513,212,1.044843197,212,0.5394849777,212,0.5565169454,212,0.1729129106,
211,0.6903831363,211,1.086332321,211,0.5541045666,211,0.5930932164,211,0.171857655,
210,0.6853936911,210,1.127138138,210,0.5616360903,210,0.6379436851,210,0.1699194461,
209,0.6777313948,209,1.167165875,209,0.563970983,209,0.6925678849,209,0.168265,
208,0.6669619083,208,1.20418179,208,0.5619974732,208,0.7552673221,208,0.1659589857,
207,0.6544613242,207,1.237418294,207,0.5583694577,207,0.8258641362,207,0.1642132998,
206,0.6399815679,206,1.265505195,206,0.5533704162,206,0.900062263,206,0.1615934074,
205,0.6247176528,205,1.28864181,205,0.5487880707,205,0.972784698,205,0.1597341895,
204,0.609151423,204,1.30322957,204,0.5493341684,204,1.033819318,204,0.158554554,
203,0.5944561958,203,1.313165426,203,0.5607486367,203,1.080869555,203,0.1576809734,
202,0.5809857249,202,1.313045502,202,0.5907369852,202,1.11244154,202,0.1579561383,
201,0.5701743364,201,1.308543324,201,0.6463092566,201,1.135484338,201,0.1596196294,
200,0.5623772144,200,1.295250058,200,0.7280502915,200,1.157235146,200,0.1627337039,

